# OpenSignals Text File Format. Version 1
# {"0C:43:14:24:7F:C7": {"position": 0, "device": "bitalino_rev", "device name": "0C:43:14:24:7F:C7", "device connection": "BTH0C:43:14:24:7F:C7", "sampling rate": 1000, "resolution": [4, 1, 1, 1, 1, 10], "firmware version": 1282, "comments": "", "keywords": "", "mode": 0, "sync interval": 2, "date": "2026-9-11", "time": "12:17:23.301", "channels": [2], "sensor": ["ECGBIT"], "label": ["A2"], "column": ["nSeq", "I1", "I2", "O1", "O2", "A2"], "special": [{}], "digital IO": [0, 0, 1, 1]}}
# EndOfHeader
0	0	0	0	0	447	
1	0	0	0	0	449	
2	0	0	0	0	453	
3	0	0	0	0	456	
4	0	0	0	0	458	
5	0	0	0	0	460	
6	0	0	0	0	462	
7	0	0	0	0	465	
8	0	0	0	0	468	
9	0	0	0	0	472	
10	0	0	0	0	475	
11	0	0	0	0	476	
12	0	0	0	0	475	
13	0	0	0	0	475	
14	0	0	0	0	473	
15	0	0	0	0	471	
0	0	0	0	0	469	
1	0	0	0	0	467	
2	0	0	0	0	465	
3	0	0	0	0	465	
4	0	0	0	0	465	
5	0	0	0	0	465	
6	0	0	0	0	465	
7	0	0	0	0	468	
8	0	0	0	0	470	
9	0	0	0	0	471	
10	0	0	0	0	471	
11	0	0	0	0	472	
12	0	0	0	0	472	
13	0	0	0	0	472	
14	0	0	0	0	473	
15	0	0	0	0	473	
0	0	0	0	0	472	
1	0	0	0	0	473	
2	0	0	0	0	474	
3	0	0	0	0	475	
4	0	0	0	0	476	
5	0	0	0	0	476	
6	0	0	0	0	478	
7	0	0	0	0	481	
8	0	0	0	0	483	
9	0	0	0	0	483	
10	0	0	0	0	482	
11	0	0	0	0	480	
12	0	0	0	0	478	
13	0	0	0	0	479	
14	0	0	0	0	479	
15	0	0	0	0	477	
0	0	0	0	0	480	
1	0	0	0	0	480	
2	0	0	0	0	482	
3	0	0	0	0	485	
4	0	0	0	0	487	
5	0	0	0	0	487	
6	0	0	0	0	484	
7	0	0	0	0	483	
8	0	0	0	0	482	
9	0	0	0	0	483	
10	0	0	0	0	484	
11	0	0	0	0	487	
12	0	0	0	0	490	
13	0	0	0	0	494	
14	0	0	0	0	499	
15	0	0	0	0	502	
0	0	0	0	0	501	
1	0	0	0	0	500	
2	0	0	0	0	499	
3	0	0	0	0	498	
4	0	0	0	0	503	
5	0	0	0	0	507	
6	0	0	0	0	508	
7	0	0	0	0	510	
8	0	0	0	0	515	
9	0	0	0	0	512	
10	0	0	0	0	505	
11	0	0	0	0	504	
12	0	0	0	0	505	
13	0	0	0	0	506	
14	0	0	0	0	502	
15	0	0	0	0	499	
0	0	0	0	0	496	
1	0	0	0	0	493	
2	0	0	0	0	491	
3	0	0	0	0	491	
4	0	0	0	0	494	
5	0	0	0	0	498	
6	0	0	0	0	498	
7	0	0	0	0	500	
8	0	0	0	0	506	
9	0	0	0	0	504	
10	0	0	0	0	492	
11	0	0	0	0	478	
12	0	0	0	0	477	
13	0	0	0	0	473	
14	0	0	0	0	469	
15	0	0	0	0	470	
0	0	0	0	0	476	
1	0	0	0	0	481	
2	0	0	0	0	489	
3	0	0	0	0	501	
4	0	0	0	0	503	
5	0	0	0	0	502	
6	0	0	0	0	500	
7	0	0	0	0	500	
8	0	0	0	0	492	
9	0	0	0	0	495	
10	0	0	0	0	494	
11	0	0	0	0	503	
12	0	0	0	0	505	
13	0	0	0	0	503	
14	0	0	0	0	509	
15	0	0	0	0	517	
0	0	0	0	0	521	
1	0	0	0	0	522	
2	0	0	0	0	522	
3	0	0	0	0	514	
4	0	0	0	0	512	
5	0	0	0	0	504	
6	0	0	0	0	497	
7	0	0	0	0	499	
8	0	0	0	0	495	
9	0	0	0	0	495	
10	0	0	0	0	502	
11	0	0	0	0	503	
12	0	0	0	0	506	
13	0	0	0	0	508	
14	0	0	0	0	511	
15	0	0	0	0	518	
0	0	0	0	0	518	
1	0	0	0	0	516	
2	0	0	0	0	521	
3	0	0	0	0	520	
4	0	0	0	0	519	
5	0	0	0	0	517	
6	0	0	0	0	516	
7	0	0	0	0	516	
8	0	0	0	0	519	
9	0	0	0	0	521	
10	0	0	0	0	513	
11	0	0	0	0	500	
12	0	0	0	0	500	
13	0	0	0	0	499	
14	0	0	0	0	496	
15	0	0	0	0	492	
0	0	0	0	0	492	
1	0	0	0	0	497	
2	0	0	0	0	504	
3	0	0	0	0	501	
4	0	0	0	0	504	
5	0	0	0	0	510	
6	0	0	0	0	512	
7	0	0	0	0	515	
8	0	0	0	0	519	
9	0	0	0	0	522	
10	0	0	0	0	526	
11	0	0	0	0	524	
12	0	0	0	0	524	
13	0	0	0	0	519	
14	0	0	0	0	515	
15	0	0	0	0	508	
0	0	0	0	0	498	
1	0	0	0	0	496	
2	0	0	0	0	492	
3	0	0	0	0	485	
4	0	0	0	0	483	
5	0	0	0	0	484	
6	0	0	0	0	485	
7	0	0	0	0	490	
8	0	0	0	0	501	
9	0	0	0	0	502	
10	0	0	0	0	501	
11	0	0	0	0	502	
12	0	0	0	0	500	
13	0	0	0	0	499	
14	0	0	0	0	503	
15	0	0	0	0	507	
0	0	0	0	0	505	
1	0	0	0	0	502	
2	0	0	0	0	503	
3	0	0	0	0	502	
4	0	0	0	0	502	
5	0	0	0	0	501	
6	0	0	0	0	503	
7	0	0	0	0	504	
8	0	0	0	0	505	
9	0	0	0	0	513	
10	0	0	0	0	518	
11	0	0	0	0	512	
12	0	0	0	0	511	
13	0	0	0	0	513	
14	0	0	0	0	514	
15	0	0	0	0	511	
0	0	0	0	0	512	
1	0	0	0	0	511	
2	0	0	0	0	514	
3	0	0	0	0	515	
4	0	0	0	0	519	
5	0	0	0	0	517	
6	0	0	0	0	518	
7	0	0	0	0	514	
8	0	0	0	0	512	
9	0	0	0	0	511	
10	0	0	0	0	511	
11	0	0	0	0	515	
12	0	0	0	0	518	
13	0	0	0	0	516	
14	0	0	0	0	516	
15	0	0	0	0	517	
0	0	0	0	0	520	
1	0	0	0	0	520	
2	0	0	0	0	521	
3	0	0	0	0	521	
4	0	0	0	0	527	
5	0	0	0	0	526	
6	0	0	0	0	525	
7	0	0	0	0	524	
8	0	0	0	0	523	
9	0	0	0	0	525	
10	0	0	0	0	526	
11	0	0	0	0	525	
12	0	0	0	0	527	
13	0	0	0	0	529	
14	0	0	0	0	531	
15	0	0	0	0	531	
0	0	0	0	0	528	
1	0	0	0	0	525	
2	0	0	0	0	525	
3	0	0	0	0	526	
4	0	0	0	0	528	
5	0	0	0	0	530	
6	0	0	0	0	531	
7	0	0	0	0	532	
8	0	0	0	0	534	
9	0	0	0	0	532	
10	0	0	0	0	530	
11	0	0	0	0	529	
12	0	0	0	0	527	
13	0	0	0	0	527	
14	0	0	0	0	527	
15	0	0	0	0	528	
0	0	0	0	0	528	
1	0	0	0	0	528	
2	0	0	0	0	527	
3	0	0	0	0	526	
4	0	0	0	0	524	
5	0	0	0	0	523	
6	0	0	0	0	523	
7	0	0	0	0	523	
8	0	0	0	0	522	
9	0	0	0	0	521	
10	0	0	0	0	521	
11	0	0	0	0	521	
12	0	0	0	0	520	
13	0	0	0	0	519	
14	0	0	0	0	518	
15	0	0	0	0	517	
0	0	0	0	0	516	
1	0	0	0	0	515	
2	0	0	0	0	515	
3	0	0	0	0	515	
4	0	0	0	0	514	
5	0	0	0	0	514	
6	0	0	0	0	513	
7	0	0	0	0	513	
8	0	0	0	0	512	
9	0	0	0	0	512	
10	0	0	0	0	512	
11	0	0	0	0	511	
12	0	0	0	0	512	
13	0	0	0	0	512	
14	0	0	0	0	512	
15	0	0	0	0	513	
0	0	0	0	0	513	
1	0	0	0	0	512	
2	0	0	0	0	511	
3	0	0	0	0	510	
4	0	0	0	0	510	
5	0	0	0	0	511	
6	0	0	0	0	511	
7	0	0	0	0	512	
8	0	0	0	0	513	
9	0	0	0	0	514	
10	0	0	0	0	513	
11	0	0	0	0	514	
12	0	0	0	0	513	
13	0	0	0	0	512	
14	0	0	0	0	510	
15	0	0	0	0	510	
0	0	0	0	0	511	
1	0	0	0	0	511	
2	0	0	0	0	511	
3	0	0	0	0	511	
4	0	0	0	0	509	
5	0	0	0	0	508	
6	0	0	0	0	507	
7	0	0	0	0	507	
8	0	0	0	0	505	
9	0	0	0	0	505	
10	0	0	0	0	507	
11	0	0	0	0	507	
12	0	0	0	0	507	
13	0	0	0	0	507	
14	0	0	0	0	508	
15	0	0	0	0	510	
0	0	0	0	0	512	
1	0	0	0	0	516	
2	0	0	0	0	517	
3	0	0	0	0	517	
4	0	0	0	0	517	
5	0	0	0	0	518	
6	0	0	0	0	517	
7	0	0	0	0	516	
8	0	0	0	0	514	
9	0	0	0	0	512	
10	0	0	0	0	510	
11	0	0	0	0	509	
12	0	0	0	0	508	
13	0	0	0	0	509	
14	0	0	0	0	512	
15	0	0	0	0	513	
0	0	0	0	0	513	
1	0	0	0	0	513	
2	0	0	0	0	513	
3	0	0	0	0	515	
4	0	0	0	0	515	
5	0	0	0	0	514	
6	0	0	0	0	513	
7	0	0	0	0	513	
8	0	0	0	0	515	
9	0	0	0	0	515	
10	0	0	0	0	514	
11	0	0	0	0	515	
12	0	0	0	0	515	
13	0	0	0	0	516	
14	0	0	0	0	518	
15	0	0	0	0	519	
0	0	0	0	0	519	
1	0	0	0	0	519	
2	0	0	0	0	519	
3	0	0	0	0	519	
4	0	0	0	0	519	
5	0	0	0	0	520	
6	0	0	0	0	522	
7	0	0	0	0	523	
8	0	0	0	0	523	
9	0	0	0	0	523	
10	0	0	0	0	524	
11	0	0	0	0	524	
12	0	0	0	0	524	
13	0	0	0	0	522	
14	0	0	0	0	520	
15	0	0	0	0	521	
0	0	0	0	0	521	
1	0	0	0	0	520	
2	0	0	0	0	520	
3	0	0	0	0	520	
4	0	0	0	0	519	
5	0	0	0	0	518	
6	0	0	0	0	517	
7	0	0	0	0	517	
8	0	0	0	0	518	
9	0	0	0	0	519	
10	0	0	0	0	520	
11	0	0	0	0	520	
12	0	0	0	0	519	
13	0	0	0	0	518	
14	0	0	0	0	519	
15	0	0	0	0	519	
0	0	0	0	0	520	
1	0	0	0	0	519	
2	0	0	0	0	519	
3	0	0	0	0	520	
4	0	0	0	0	521	
5	0	0	0	0	521	
6	0	0	0	0	520	
7	0	0	0	0	521	
8	0	0	0	0	522	
9	0	0	0	0	524	
10	0	0	0	0	524	
11	0	0	0	0	524	
12	0	0	0	0	522	
13	0	0	0	0	522	
14	0	0	0	0	523	
15	0	0	0	0	524	
0	0	0	0	0	528	
1	0	0	0	0	531	
2	0	0	0	0	532	
3	0	0	0	0	531	
4	0	0	0	0	531	
5	0	0	0	0	529	
6	0	0	0	0	528	
7	0	0	0	0	530	
8	0	0	0	0	529	
9	0	0	0	0	529	
10	0	0	0	0	529	
11	0	0	0	0	527	
12	0	0	0	0	527	
13	0	0	0	0	526	
14	0	0	0	0	526	
15	0	0	0	0	525	
0	0	0	0	0	523	
1	0	0	0	0	524	
2	0	0	0	0	523	
3	0	0	0	0	523	
4	0	0	0	0	522	
5	0	0	0	0	524	
6	0	0	0	0	525	
7	0	0	0	0	526	
8	0	0	0	0	525	
9	0	0	0	0	525	
10	0	0	0	0	524	
11	0	0	0	0	523	
12	0	0	0	0	521	
13	0	0	0	0	521	
14	0	0	0	0	521	
15	0	0	0	0	520	
0	0	0	0	0	521	
1	0	0	0	0	523	
2	0	0	0	0	524	
3	0	0	0	0	525	
4	0	0	0	0	526	
5	0	0	0	0	526	
6	0	0	0	0	526	
7	0	0	0	0	524	
8	0	0	0	0	524	
9	0	0	0	0	522	
10	0	0	0	0	522	
11	0	0	0	0	523	
12	0	0	0	0	523	
13	0	0	0	0	521	
14	0	0	0	0	519	
15	0	0	0	0	519	
0	0	0	0	0	519	
1	0	0	0	0	520	
2	0	0	0	0	520	
3	0	0	0	0	520	
4	0	0	0	0	521	
5	0	0	0	0	521	
6	0	0	0	0	521	
7	0	0	0	0	521	
8	0	0	0	0	521	
9	0	0	0	0	520	
10	0	0	0	0	520	
11	0	0	0	0	520	
12	0	0	0	0	519	
13	0	0	0	0	518	
14	0	0	0	0	518	
15	0	0	0	0	517	
0	0	0	0	0	517	
1	0	0	0	0	517	
2	0	0	0	0	516	
3	0	0	0	0	516	
4	0	0	0	0	516	
5	0	0	0	0	517	
6	0	0	0	0	517	
7	0	0	0	0	518	
8	0	0	0	0	517	
9	0	0	0	0	517	
10	0	0	0	0	519	
11	0	0	0	0	519	
12	0	0	0	0	518	
13	0	0	0	0	517	
14	0	0	0	0	518	
15	0	0	0	0	519	
0	0	0	0	0	520	
1	0	0	0	0	519	
2	0	0	0	0	519	
3	0	0	0	0	518	
4	0	0	0	0	518	
5	0	0	0	0	518	
6	0	0	0	0	518	
7	0	0	0	0	519	
8	0	0	0	0	519	
9	0	0	0	0	521	
10	0	0	0	0	523	
11	0	0	0	0	524	
12	0	0	0	0	526	
13	0	0	0	0	526	
14	0	0	0	0	527	
15	0	0	0	0	527	
0	0	0	0	0	527	
1	0	0	0	0	526	
2	0	0	0	0	525	
3	0	0	0	0	525	
4	0	0	0	0	524	
5	0	0	0	0	524	
6	0	0	0	0	527	
7	0	0	0	0	528	
8	0	0	0	0	527	
9	0	0	0	0	526	
10	0	0	0	0	526	
11	0	0	0	0	526	
12	0	0	0	0	526	
13	0	0	0	0	528	
14	0	0	0	0	530	
15	0	0	0	0	531	
0	0	0	0	0	532	
1	0	0	0	0	531	
2	0	0	0	0	530	
3	0	0	0	0	528	
4	0	0	0	0	529	
5	0	0	0	0	530	
6	0	0	0	0	527	
7	0	0	0	0	527	
8	0	0	0	0	527	
9	0	0	0	0	527	
10	0	0	0	0	525	
11	0	0	0	0	522	
12	0	0	0	0	518	
13	0	0	0	0	515	
14	0	0	0	0	514	
15	0	0	0	0	514	
0	0	0	0	0	513	
1	0	0	0	0	510	
2	0	0	0	0	508	
3	0	0	0	0	508	
4	0	0	0	0	510	
5	0	0	0	0	514	
6	0	0	0	0	516	
7	0	0	0	0	519	
8	0	0	0	0	521	
9	0	0	0	0	523	
10	0	0	0	0	524	
11	0	0	0	0	526	
12	0	0	0	0	527	
13	0	0	0	0	527	
14	0	0	0	0	527	
15	0	0	0	0	528	
0	0	0	0	0	529	
1	0	0	0	0	529	
2	0	0	0	0	528	
3	0	0	0	0	528	
4	0	0	0	0	527	
5	0	0	0	0	527	
6	0	0	0	0	527	
7	0	0	0	0	527	
8	0	0	0	0	526	
9	0	0	0	0	525	
10	0	0	0	0	523	
11	0	0	0	0	520	
12	0	0	0	0	518	
13	0	0	0	0	516	
14	0	0	0	0	513	
15	0	0	0	0	511	
0	0	0	0	0	508	
1	0	0	0	0	505	
2	0	0	0	0	506	
3	0	0	0	0	506	
4	0	0	0	0	503	
5	0	0	0	0	501	
6	0	0	0	0	501	
7	0	0	0	0	501	
8	0	0	0	0	501	
9	0	0	0	0	500	
10	0	0	0	0	498	
11	0	0	0	0	499	
12	0	0	0	0	502	
13	0	0	0	0	505	
14	0	0	0	0	507	
15	0	0	0	0	508	
0	0	0	0	0	509	
1	0	0	0	0	509	
2	0	0	0	0	507	
3	0	0	0	0	506	
4	0	0	0	0	504	
5	0	0	0	0	503	
6	0	0	0	0	504	
7	0	0	0	0	506	
8	0	0	0	0	507	
9	0	0	0	0	506	
10	0	0	0	0	504	
11	0	0	0	0	502	
12	0	0	0	0	501	
13	0	0	0	0	500	
14	0	0	0	0	501	
15	0	0	0	0	501	
0	0	0	0	0	501	
1	0	0	0	0	503	
2	0	0	0	0	507	
3	0	0	0	0	510	
4	0	0	0	0	510	
5	0	0	0	0	511	
6	0	0	0	0	512	
7	0	0	0	0	510	
8	0	0	0	0	510	
9	0	0	0	0	510	
10	0	0	0	0	509	
11	0	0	0	0	509	
12	0	0	0	0	508	
13	0	0	0	0	507	
14	0	0	0	0	506	
15	0	0	0	0	505	
0	0	0	0	0	502	
1	0	0	0	0	501	
2	0	0	0	0	500	
3	0	0	0	0	501	
4	0	0	0	0	502	
5	0	0	0	0	502	
6	0	0	0	0	502	
7	0	0	0	0	500	
8	0	0	0	0	499	
9	0	0	0	0	498	
10	0	0	0	0	497	
11	0	0	0	0	499	
12	0	0	0	0	498	
13	0	0	0	0	498	
14	0	0	0	0	499	
15	0	0	0	0	501	
0	0	0	0	0	501	
1	0	0	0	0	501	
2	0	0	0	0	502	
3	0	0	0	0	502	
4	0	0	0	0	500	
5	0	0	0	0	501	
6	0	0	0	0	502	
7	0	0	0	0	504	
8	0	0	0	0	505	
9	0	0	0	0	504	
10	0	0	0	0	502	
11	0	0	0	0	499	
12	0	0	0	0	500	
13	0	0	0	0	501	
14	0	0	0	0	498	
15	0	0	0	0	496	
0	0	0	0	0	496	
1	0	0	0	0	498	
2	0	0	0	0	499	
3	0	0	0	0	502	
4	0	0	0	0	506	
5	0	0	0	0	510	
6	0	0	0	0	515	
7	0	0	0	0	522	
8	0	0	0	0	527	
9	0	0	0	0	534	
10	0	0	0	0	542	
11	0	0	0	0	550	
12	0	0	0	0	558	
13	0	0	0	0	567	
14	0	0	0	0	577	
15	0	0	0	0	590	
0	0	0	0	0	603	
1	0	0	0	0	618	
2	0	0	0	0	635	
3	0	0	0	0	654	
4	0	0	0	0	675	
5	0	0	0	0	695	
6	0	0	0	0	716	
7	0	0	0	0	736	
8	0	0	0	0	758	
9	0	0	0	0	780	
10	0	0	0	0	803	
11	0	0	0	0	826	
12	0	0	0	0	847	
13	0	0	0	0	866	
14	0	0	0	0	878	
15	0	0	0	0	885	
0	0	0	0	0	886	
1	0	0	0	0	882	
2	0	0	0	0	874	
3	0	0	0	0	863	
4	0	0	0	0	843	
5	0	0	0	0	817	
6	0	0	0	0	787	
7	0	0	0	0	755	
8	0	0	0	0	716	
9	0	0	0	0	676	
10	0	0	0	0	637	
11	0	0	0	0	599	
12	0	0	0	0	559	
13	0	0	0	0	520	
14	0	0	0	0	481	
15	0	0	0	0	444	
0	0	0	0	0	413	
1	0	0	0	0	394	
2	0	0	0	0	380	
3	0	0	0	0	371	
4	0	0	0	0	372	
5	0	0	0	0	375	
6	0	0	0	0	379	
7	0	0	0	0	386	
8	0	0	0	0	394	
9	0	0	0	0	401	
10	0	0	0	0	407	
11	0	0	0	0	414	
12	0	0	0	0	419	
13	0	0	0	0	422	
14	0	0	0	0	425	
15	0	0	0	0	428	
0	0	0	0	0	432	
1	0	0	0	0	435	
2	0	0	0	0	439	
3	0	0	0	0	442	
4	0	0	0	0	443	
5	0	0	0	0	444	
6	0	0	0	0	445	
7	0	0	0	0	447	
8	0	0	0	0	449	
9	0	0	0	0	449	
10	0	0	0	0	448	
11	0	0	0	0	448	
12	0	0	0	0	447	
13	0	0	0	0	448	
14	0	0	0	0	448	
15	0	0	0	0	447	
0	0	0	0	0	446	
1	0	0	0	0	447	
2	0	0	0	0	447	
3	0	0	0	0	449	
4	0	0	0	0	451	
5	0	0	0	0	450	
6	0	0	0	0	453	
7	0	0	0	0	455	
8	0	0	0	0	455	
9	0	0	0	0	456	
10	0	0	0	0	456	
11	0	0	0	0	456	
12	0	0	0	0	456	
13	0	0	0	0	458	
14	0	0	0	0	460	
15	0	0	0	0	463	
0	0	0	0	0	467	
1	0	0	0	0	471	
2	0	0	0	0	469	
3	0	0	0	0	466	
4	0	0	0	0	466	
5	0	0	0	0	468	
6	0	0	0	0	469	
7	0	0	0	0	469	
8	0	0	0	0	468	
9	0	0	0	0	468	
10	0	0	0	0	469	
11	0	0	0	0	472	
12	0	0	0	0	473	
13	0	0	0	0	473	
14	0	0	0	0	472	
15	0	0	0	0	473	
0	0	0	0	0	472	
1	0	0	0	0	472	
2	0	0	0	0	475	
3	0	0	0	0	473	
4	0	0	0	0	473	
5	0	0	0	0	477	
6	0	0	0	0	479	
7	0	0	0	0	479	
8	0	0	0	0	479	
9	0	0	0	0	479	
10	0	0	0	0	480	
11	0	0	0	0	480	
12	0	0	0	0	480	
13	0	0	0	0	479	
14	0	0	0	0	478	
15	0	0	0	0	478	
0	0	0	0	0	478	
1	0	0	0	0	478	
2	0	0	0	0	478	
3	0	0	0	0	479	
4	0	0	0	0	479	
5	0	0	0	0	479	
6	0	0	0	0	479	
7	0	0	0	0	479	
8	0	0	0	0	481	
9	0	0	0	0	483	
10	0	0	0	0	484	
11	0	0	0	0	484	
12	0	0	0	0	483	
13	0	0	0	0	482	
14	0	0	0	0	483	
15	0	0	0	0	485	
0	0	0	0	0	486	
1	0	0	0	0	486	
2	0	0	0	0	487	
3	0	0	0	0	491	
4	0	0	0	0	493	
5	0	0	0	0	492	
6	0	0	0	0	491	
7	0	0	0	0	490	
8	0	0	0	0	492	
9	0	0	0	0	492	
10	0	0	0	0	492	
11	0	0	0	0	492	
12	0	0	0	0	493	
13	0	0	0	0	495	
14	0	0	0	0	496	
15	0	0	0	0	498	
0	0	0	0	0	498	
1	0	0	0	0	498	
2	0	0	0	0	499	
3	0	0	0	0	500	
4	0	0	0	0	504	
5	0	0	0	0	508	
6	0	0	0	0	510	
7	0	0	0	0	512	
8	0	0	0	0	512	
9	0	0	0	0	511	
10	0	0	0	0	511	
11	0	0	0	0	511	
12	0	0	0	0	509	
13	0	0	0	0	508	
14	0	0	0	0	510	
15	0	0	0	0	511	
0	0	0	0	0	511	
1	0	0	0	0	510	
2	0	0	0	0	511	
3	0	0	0	0	515	
4	0	0	0	0	517	
5	0	0	0	0	517	
6	0	0	0	0	516	
7	0	0	0	0	517	
8	0	0	0	0	518	
9	0	0	0	0	516	
10	0	0	0	0	517	
11	0	0	0	0	518	
12	0	0	0	0	519	
13	0	0	0	0	522	
14	0	0	0	0	523	
15	0	0	0	0	522	
0	0	0	0	0	521	
1	0	0	0	0	521	
2	0	0	0	0	521	
3	0	0	0	0	522	
4	0	0	0	0	522	
5	0	0	0	0	521	
6	0	0	0	0	521	
7	0	0	0	0	524	
8	0	0	0	0	526	
9	0	0	0	0	527	
10	0	0	0	0	528	
11	0	0	0	0	530	
12	0	0	0	0	531	
13	0	0	0	0	530	
14	0	0	0	0	531	
15	0	0	0	0	532	
0	0	0	0	0	531	
1	0	0	0	0	528	
2	0	0	0	0	528	
3	0	0	0	0	527	
4	0	0	0	0	527	
5	0	0	0	0	530	
6	0	0	0	0	535	
7	0	0	0	0	537	
8	0	0	0	0	539	
9	0	0	0	0	540	
10	0	0	0	0	539	
11	0	0	0	0	539	
12	0	0	0	0	541	
13	0	0	0	0	543	
14	0	0	0	0	544	
15	0	0	0	0	544	
0	0	0	0	0	544	
1	0	0	0	0	546	
2	0	0	0	0	547	
3	0	0	0	0	545	
4	0	0	0	0	545	
5	0	0	0	0	547	
6	0	0	0	0	547	
7	0	0	0	0	547	
8	0	0	0	0	553	
9	0	0	0	0	555	
10	0	0	0	0	558	
11	0	0	0	0	556	
12	0	0	0	0	553	
13	0	0	0	0	551	
14	0	0	0	0	551	
15	0	0	0	0	553	
0	0	0	0	0	552	
1	0	0	0	0	553	
2	0	0	0	0	554	
3	0	0	0	0	556	
4	0	0	0	0	558	
5	0	0	0	0	561	
6	0	0	0	0	560	
7	0	0	0	0	561	
8	0	0	0	0	560	
9	0	0	0	0	561	
10	0	0	0	0	563	
11	0	0	0	0	566	
12	0	0	0	0	567	
13	0	0	0	0	568	
14	0	0	0	0	568	
15	0	0	0	0	568	
0	0	0	0	0	568	
1	0	0	0	0	571	
2	0	0	0	0	572	
3	0	0	0	0	573	
4	0	0	0	0	574	
5	0	0	0	0	575	
6	0	0	0	0	578	
7	0	0	0	0	579	
8	0	0	0	0	580	
9	0	0	0	0	579	
10	0	0	0	0	578	
11	0	0	0	0	577	
12	0	0	0	0	578	
13	0	0	0	0	580	
14	0	0	0	0	582	
15	0	0	0	0	582	
0	0	0	0	0	582	
1	0	0	0	0	584	
2	0	0	0	0	583	
3	0	0	0	0	580	
4	0	0	0	0	579	
5	0	0	0	0	578	
6	0	0	0	0	577	
7	0	0	0	0	579	
8	0	0	0	0	582	
9	0	0	0	0	584	
10	0	0	0	0	583	
11	0	0	0	0	580	
12	0	0	0	0	577	
13	0	0	0	0	575	
14	0	0	0	0	572	
15	0	0	0	0	568	
0	0	0	0	0	565	
1	0	0	0	0	564	
2	0	0	0	0	563	
3	0	0	0	0	560	
4	0	0	0	0	557	
5	0	0	0	0	553	
6	0	0	0	0	554	
7	0	0	0	0	553	
8	0	0	0	0	550	
9	0	0	0	0	548	
10	0	0	0	0	546	
11	0	0	0	0	544	
12	0	0	0	0	540	
13	0	0	0	0	538	
14	0	0	0	0	534	
15	0	0	0	0	533	
0	0	0	0	0	529	
1	0	0	0	0	527	
2	0	0	0	0	524	
3	0	0	0	0	522	
4	0	0	0	0	520	
5	0	0	0	0	520	
6	0	0	0	0	518	
7	0	0	0	0	515	
8	0	0	0	0	513	
9	0	0	0	0	510	
10	0	0	0	0	508	
11	0	0	0	0	506	
12	0	0	0	0	503	
13	0	0	0	0	500	
14	0	0	0	0	495	
15	0	0	0	0	490	
0	0	0	0	0	489	
1	0	0	0	0	487	
2	0	0	0	0	484	
3	0	0	0	0	480	
4	0	0	0	0	478	
5	0	0	0	0	473	
6	0	0	0	0	470	
7	0	0	0	0	467	
8	0	0	0	0	465	
9	0	0	0	0	464	
10	0	0	0	0	464	
11	0	0	0	0	462	
12	0	0	0	0	459	
13	0	0	0	0	457	
14	0	0	0	0	455	
15	0	0	0	0	456	
0	0	0	0	0	452	
1	0	0	0	0	450	
2	0	0	0	0	447	
3	0	0	0	0	442	
4	0	0	0	0	440	
5	0	0	0	0	440	
6	0	0	0	0	443	
7	0	0	0	0	444	
8	0	0	0	0	443	
9	0	0	0	0	441	
10	0	0	0	0	441	
11	0	0	0	0	444	
12	0	0	0	0	445	
13	0	0	0	0	444	
14	0	0	0	0	441	
15	0	0	0	0	438	
0	0	0	0	0	436	
1	0	0	0	0	435	
2	0	0	0	0	435	
3	0	0	0	0	434	
4	0	0	0	0	433	
5	0	0	0	0	433	
6	0	0	0	0	432	
7	0	0	0	0	432	
8	0	0	0	0	431	
9	0	0	0	0	432	
10	0	0	0	0	434	
11	0	0	0	0	436	
12	0	0	0	0	438	
13	0	0	0	0	437	
14	0	0	0	0	438	
15	0	0	0	0	438	
0	0	0	0	0	439	
1	0	0	0	0	441	
2	0	0	0	0	445	
3	0	0	0	0	446	
4	0	0	0	0	444	
5	0	0	0	0	443	
6	0	0	0	0	443	
7	0	0	0	0	443	
8	0	0	0	0	442	
9	0	0	0	0	442	
10	0	0	0	0	441	
11	0	0	0	0	442	
12	0	0	0	0	441	
13	0	0	0	0	443	
14	0	0	0	0	444	
15	0	0	0	0	444	
0	0	0	0	0	447	
1	0	0	0	0	448	
2	0	0	0	0	448	
3	0	0	0	0	450	
4	0	0	0	0	453	
5	0	0	0	0	456	
6	0	0	0	0	459	
7	0	0	0	0	461	
8	0	0	0	0	464	
9	0	0	0	0	465	
10	0	0	0	0	465	
11	0	0	0	0	466	
12	0	0	0	0	467	
13	0	0	0	0	467	
14	0	0	0	0	468	
15	0	0	0	0	469	
0	0	0	0	0	471	
1	0	0	0	0	471	
2	0	0	0	0	472	
3	0	0	0	0	476	
4	0	0	0	0	478	
5	0	0	0	0	478	
6	0	0	0	0	478	
7	0	0	0	0	476	
8	0	0	0	0	475	
9	0	0	0	0	477	
10	0	0	0	0	477	
11	0	0	0	0	478	
12	0	0	0	0	480	
13	0	0	0	0	482	
14	0	0	0	0	484	
15	0	0	0	0	483	
0	0	0	0	0	483	
1	0	0	0	0	486	
2	0	0	0	0	487	
3	0	0	0	0	489	
4	0	0	0	0	491	
5	0	0	0	0	493	
6	0	0	0	0	494	
7	0	0	0	0	493	
8	0	0	0	0	492	
9	0	0	0	0	491	
10	0	0	0	0	492	
11	0	0	0	0	493	
12	0	0	0	0	495	
13	0	0	0	0	495	
14	0	0	0	0	494	
15	0	0	0	0	492	
0	0	0	0	0	494	
1	0	0	0	0	497	
2	0	0	0	0	497	
3	0	0	0	0	497	
4	0	0	0	0	497	
5	0	0	0	0	497	
6	0	0	0	0	496	
7	0	0	0	0	497	
8	0	0	0	0	497	
9	0	0	0	0	497	
10	0	0	0	0	497	
11	0	0	0	0	494	
12	0	0	0	0	494	
13	0	0	0	0	495	
14	0	0	0	0	498	
15	0	0	0	0	499	
0	0	0	0	0	500	
1	0	0	0	0	501	
2	0	0	0	0	502	
3	0	0	0	0	502	
4	0	0	0	0	501	
5	0	0	0	0	499	
6	0	0	0	0	498	
7	0	0	0	0	498	
8	0	0	0	0	499	
9	0	0	0	0	500	
10	0	0	0	0	501	
11	0	0	0	0	504	
12	0	0	0	0	505	
13	0	0	0	0	506	
14	0	0	0	0	507	
15	0	0	0	0	508	
0	0	0	0	0	510	
1	0	0	0	0	510	
2	0	0	0	0	512	
3	0	0	0	0	514	
4	0	0	0	0	515	
5	0	0	0	0	516	
6	0	0	0	0	515	
7	0	0	0	0	513	
8	0	0	0	0	512	
9	0	0	0	0	512	
10	0	0	0	0	513	
11	0	0	0	0	514	
12	0	0	0	0	513	
13	0	0	0	0	511	
14	0	0	0	0	511	
15	0	0	0	0	512	
0	0	0	0	0	511	
1	0	0	0	0	514	
2	0	0	0	0	515	
3	0	0	0	0	514	
4	0	0	0	0	515	
5	0	0	0	0	515	
6	0	0	0	0	516	
7	0	0	0	0	515	
8	0	0	0	0	514	
9	0	0	0	0	514	
10	0	0	0	0	514	
11	0	0	0	0	514	
12	0	0	0	0	513	
13	0	0	0	0	514	
14	0	0	0	0	518	
15	0	0	0	0	518	
0	0	0	0	0	520	
1	0	0	0	0	521	
2	0	0	0	0	522	
3	0	0	0	0	520	
4	0	0	0	0	521	
5	0	0	0	0	524	
6	0	0	0	0	525	
7	0	0	0	0	524	
8	0	0	0	0	522	
9	0	0	0	0	519	
10	0	0	0	0	520	
11	0	0	0	0	521	
12	0	0	0	0	516	
13	0	0	0	0	514	
14	0	0	0	0	512	
15	0	0	0	0	510	
0	0	0	0	0	509	
1	0	0	0	0	509	
2	0	0	0	0	512	
3	0	0	0	0	513	
4	0	0	0	0	513	
5	0	0	0	0	513	
6	0	0	0	0	513	
7	0	0	0	0	513	
8	0	0	0	0	511	
9	0	0	0	0	511	
10	0	0	0	0	513	
11	0	0	0	0	513	
12	0	0	0	0	514	
13	0	0	0	0	514	
14	0	0	0	0	514	
15	0	0	0	0	513	
0	0	0	0	0	512	
1	0	0	0	0	512	
2	0	0	0	0	511	
3	0	0	0	0	510	
4	0	0	0	0	511	
5	0	0	0	0	513	
6	0	0	0	0	514	
7	0	0	0	0	513	
8	0	0	0	0	510	
9	0	0	0	0	510	
10	0	0	0	0	509	
11	0	0	0	0	510	
12	0	0	0	0	512	
13	0	0	0	0	512	
14	0	0	0	0	512	
15	0	0	0	0	512	
0	0	0	0	0	514	
1	0	0	0	0	516	
2	0	0	0	0	518	
3	0	0	0	0	519	
4	0	0	0	0	517	
5	0	0	0	0	515	
6	0	0	0	0	514	
7	0	0	0	0	513	
8	0	0	0	0	511	
9	0	0	0	0	510	
10	0	0	0	0	508	
11	0	0	0	0	508	
12	0	0	0	0	507	
13	0	0	0	0	507	
14	0	0	0	0	505	
15	0	0	0	0	504	
0	0	0	0	0	502	
1	0	0	0	0	503	
2	0	0	0	0	502	
3	0	0	0	0	499	
4	0	0	0	0	500	
5	0	0	0	0	500	
6	0	0	0	0	501	
7	0	0	0	0	504	
8	0	0	0	0	506	
9	0	0	0	0	508	
10	0	0	0	0	508	
11	0	0	0	0	508	
12	0	0	0	0	510	
13	0	0	0	0	512	
14	0	0	0	0	515	
15	0	0	0	0	516	
0	0	0	0	0	516	
1	0	0	0	0	517	
2	0	0	0	0	516	
3	0	0	0	0	515	
4	0	0	0	0	514	
5	0	0	0	0	514	
6	0	0	0	0	515	
7	0	0	0	0	515	
8	0	0	0	0	514	
9	0	0	0	0	512	
10	0	0	0	0	511	
11	0	0	0	0	509	
12	0	0	0	0	508	
13	0	0	0	0	508	
14	0	0	0	0	509	
15	0	0	0	0	508	
0	0	0	0	0	507	
1	0	0	0	0	507	
2	0	0	0	0	505	
3	0	0	0	0	506	
4	0	0	0	0	506	
5	0	0	0	0	506	
6	0	0	0	0	507	
7	0	0	0	0	508	
8	0	0	0	0	507	
9	0	0	0	0	506	
10	0	0	0	0	507	
11	0	0	0	0	510	
12	0	0	0	0	511	
13	0	0	0	0	510	
14	0	0	0	0	511	
15	0	0	0	0	510	
0	0	0	0	0	512	
1	0	0	0	0	511	
2	0	0	0	0	513	
3	0	0	0	0	514	
4	0	0	0	0	514	
5	0	0	0	0	513	
6	0	0	0	0	513	
7	0	0	0	0	514	
8	0	0	0	0	515	
9	0	0	0	0	518	
10	0	0	0	0	517	
11	0	0	0	0	516	
12	0	0	0	0	513	
13	0	0	0	0	514	
14	0	0	0	0	515	
15	0	0	0	0	517	
0	0	0	0	0	519	
1	0	0	0	0	518	
2	0	0	0	0	515	
3	0	0	0	0	514	
4	0	0	0	0	516	
5	0	0	0	0	516	
6	0	0	0	0	514	
7	0	0	0	0	514	
8	0	0	0	0	517	
9	0	0	0	0	518	
10	0	0	0	0	517	
11	0	0	0	0	519	
12	0	0	0	0	518	
13	0	0	0	0	519	
14	0	0	0	0	520	
15	0	0	0	0	522	
0	0	0	0	0	521	
1	0	0	0	0	519	
2	0	0	0	0	518	
3	0	0	0	0	517	
4	0	0	0	0	515	
5	0	0	0	0	514	
6	0	0	0	0	515	
7	0	0	0	0	517	
8	0	0	0	0	519	
9	0	0	0	0	519	
10	0	0	0	0	520	
11	0	0	0	0	520	
12	0	0	0	0	521	
13	0	0	0	0	520	
14	0	0	0	0	519	
15	0	0	0	0	519	
0	0	0	0	0	520	
1	0	0	0	0	520	
2	0	0	0	0	520	
3	0	0	0	0	519	
4	0	0	0	0	520	
5	0	0	0	0	520	
6	0	0	0	0	519	
7	0	0	0	0	517	
8	0	0	0	0	517	
9	0	0	0	0	521	
10	0	0	0	0	522	
11	0	0	0	0	524	
12	0	0	0	0	524	
13	0	0	0	0	524	
14	0	0	0	0	522	
15	0	0	0	0	521	
0	0	0	0	0	524	
1	0	0	0	0	526	
2	0	0	0	0	525	
3	0	0	0	0	525	
4	0	0	0	0	527	
5	0	0	0	0	527	
6	0	0	0	0	527	
7	0	0	0	0	531	
8	0	0	0	0	532	
9	0	0	0	0	532	
10	0	0	0	0	532	
11	0	0	0	0	528	
12	0	0	0	0	527	
13	0	0	0	0	524	
14	0	0	0	0	518	
15	0	0	0	0	513	
0	0	0	0	0	512	
1	0	0	0	0	512	
2	0	0	0	0	511	
3	0	0	0	0	509	
4	0	0	0	0	509	
5	0	0	0	0	508	
6	0	0	0	0	510	
7	0	0	0	0	510	
8	0	0	0	0	513	
9	0	0	0	0	515	
10	0	0	0	0	518	
11	0	0	0	0	523	
12	0	0	0	0	524	
13	0	0	0	0	524	
14	0	0	0	0	525	
15	0	0	0	0	524	
0	0	0	0	0	521	
1	0	0	0	0	521	
2	0	0	0	0	520	
3	0	0	0	0	519	
4	0	0	0	0	519	
5	0	0	0	0	520	
6	0	0	0	0	522	
7	0	0	0	0	523	
8	0	0	0	0	524	
9	0	0	0	0	523	
10	0	0	0	0	523	
11	0	0	0	0	525	
12	0	0	0	0	525	
13	0	0	0	0	526	
14	0	0	0	0	524	
15	0	0	0	0	522	
0	0	0	0	0	522	
1	0	0	0	0	524	
2	0	0	0	0	524	
3	0	0	0	0	526	
4	0	0	0	0	526	
5	0	0	0	0	527	
6	0	0	0	0	527	
7	0	0	0	0	527	
8	0	0	0	0	527	
9	0	0	0	0	529	
10	0	0	0	0	529	
11	0	0	0	0	530	
12	0	0	0	0	531	
13	0	0	0	0	534	
14	0	0	0	0	535	
15	0	0	0	0	536	
0	0	0	0	0	536	
1	0	0	0	0	534	
2	0	0	0	0	531	
3	0	0	0	0	530	
4	0	0	0	0	528	
5	0	0	0	0	526	
6	0	0	0	0	526	
7	0	0	0	0	527	
8	0	0	0	0	523	
9	0	0	0	0	520	
10	0	0	0	0	519	
11	0	0	0	0	519	
12	0	0	0	0	518	
13	0	0	0	0	519	
14	0	0	0	0	519	
15	0	0	0	0	520	
0	0	0	0	0	523	
1	0	0	0	0	522	
2	0	0	0	0	522	
3	0	0	0	0	521	
4	0	0	0	0	521	
5	0	0	0	0	521	
6	0	0	0	0	519	
7	0	0	0	0	521	
8	0	0	0	0	519	
9	0	0	0	0	518	
10	0	0	0	0	520	
11	0	0	0	0	521	
12	0	0	0	0	525	
13	0	0	0	0	527	
14	0	0	0	0	527	
15	0	0	0	0	527	
0	0	0	0	0	526	
1	0	0	0	0	525	
2	0	0	0	0	523	
3	0	0	0	0	522	
4	0	0	0	0	523	
5	0	0	0	0	522	
6	0	0	0	0	520	
7	0	0	0	0	519	
8	0	0	0	0	521	
9	0	0	0	0	521	
10	0	0	0	0	522	
11	0	0	0	0	520	
12	0	0	0	0	516	
13	0	0	0	0	516	
14	0	0	0	0	517	
15	0	0	0	0	517	
0	0	0	0	0	519	
1	0	0	0	0	521	
2	0	0	0	0	521	
3	0	0	0	0	521	
4	0	0	0	0	517	
5	0	0	0	0	516	
6	0	0	0	0	518	
7	0	0	0	0	518	
8	0	0	0	0	521	
9	0	0	0	0	524	
10	0	0	0	0	527	
11	0	0	0	0	529	
12	0	0	0	0	531	
13	0	0	0	0	533	
14	0	0	0	0	538	
15	0	0	0	0	542	
0	0	0	0	0	542	
1	0	0	0	0	541	
2	0	0	0	0	541	
3	0	0	0	0	542	
4	0	0	0	0	540	
5	0	0	0	0	536	
6	0	0	0	0	532	
7	0	0	0	0	530	
8	0	0	0	0	527	
9	0	0	0	0	525	
10	0	0	0	0	522	
11	0	0	0	0	519	
12	0	0	0	0	517	
13	0	0	0	0	516	
14	0	0	0	0	518	
15	0	0	0	0	517	
0	0	0	0	0	517	
1	0	0	0	0	519	
2	0	0	0	0	519	
3	0	0	0	0	520	
4	0	0	0	0	520	
5	0	0	0	0	517	
6	0	0	0	0	517	
7	0	0	0	0	517	
8	0	0	0	0	517	
9	0	0	0	0	518	
10	0	0	0	0	520	
11	0	0	0	0	520	
12	0	0	0	0	519	
13	0	0	0	0	522	
14	0	0	0	0	525	
15	0	0	0	0	525	
0	0	0	0	0	524	
1	0	0	0	0	521	
2	0	0	0	0	520	
3	0	0	0	0	518	
4	0	0	0	0	519	
5	0	0	0	0	519	
6	0	0	0	0	518	
7	0	0	0	0	518	
8	0	0	0	0	514	
9	0	0	0	0	513	
10	0	0	0	0	515	
11	0	0	0	0	517	
12	0	0	0	0	518	
13	0	0	0	0	519	
14	0	0	0	0	521	
15	0	0	0	0	522	
0	0	0	0	0	519	
1	0	0	0	0	522	
2	0	0	0	0	520	
3	0	0	0	0	517	
4	0	0	0	0	511	
5	0	0	0	0	507	
6	0	0	0	0	504	
7	0	0	0	0	505	
8	0	0	0	0	504	
9	0	0	0	0	504	
10	0	0	0	0	505	
11	0	0	0	0	504	
12	0	0	0	0	504	
13	0	0	0	0	502	
14	0	0	0	0	503	
15	0	0	0	0	500	
0	0	0	0	0	500	
1	0	0	0	0	498	
2	0	0	0	0	499	
3	0	0	0	0	502	
4	0	0	0	0	505	
5	0	0	0	0	512	
6	0	0	0	0	517	
7	0	0	0	0	520	
8	0	0	0	0	524	
9	0	0	0	0	529	
10	0	0	0	0	532	
11	0	0	0	0	536	
12	0	0	0	0	545	
13	0	0	0	0	551	
14	0	0	0	0	560	
15	0	0	0	0	574	
0	0	0	0	0	587	
1	0	0	0	0	603	
2	0	0	0	0	620	
3	0	0	0	0	640	
4	0	0	0	0	659	
5	0	0	0	0	678	
6	0	0	0	0	696	
7	0	0	0	0	715	
8	0	0	0	0	733	
9	0	0	0	0	750	
10	0	0	0	0	765	
11	0	0	0	0	782	
12	0	0	0	0	799	
13	0	0	0	0	813	
14	0	0	0	0	825	
15	0	0	0	0	831	
0	0	0	0	0	833	
1	0	0	0	0	828	
2	0	0	0	0	822	
3	0	0	0	0	812	
4	0	0	0	0	792	
5	0	0	0	0	768	
6	0	0	0	0	740	
7	0	0	0	0	713	
8	0	0	0	0	683	
9	0	0	0	0	652	
10	0	0	0	0	619	
11	0	0	0	0	576	
12	0	0	0	0	534	
13	0	0	0	0	499	
14	0	0	0	0	468	
15	0	0	0	0	445	
0	0	0	0	0	428	
1	0	0	0	0	416	
2	0	0	0	0	408	
3	0	0	0	0	404	
4	0	0	0	0	403	
5	0	0	0	0	404	
6	0	0	0	0	408	
7	0	0	0	0	413	
8	0	0	0	0	417	
9	0	0	0	0	421	
10	0	0	0	0	424	
11	0	0	0	0	433	
12	0	0	0	0	441	
13	0	0	0	0	445	
14	0	0	0	0	448	
15	0	0	0	0	451	
0	0	0	0	0	455	
1	0	0	0	0	459	
2	0	0	0	0	463	
3	0	0	0	0	464	
4	0	0	0	0	464	
5	0	0	0	0	465	
6	0	0	0	0	467	
7	0	0	0	0	472	
8	0	0	0	0	475	
9	0	0	0	0	475	
10	0	0	0	0	475	
11	0	0	0	0	476	
12	0	0	0	0	477	
13	0	0	0	0	477	
14	0	0	0	0	477	
15	0	0	0	0	476	
0	0	0	0	0	477	
1	0	0	0	0	479	
2	0	0	0	0	477	
3	0	0	0	0	475	
4	0	0	0	0	473	
5	0	0	0	0	472	
6	0	0	0	0	470	
7	0	0	0	0	467	
8	0	0	0	0	466	
9	0	0	0	0	467	
10	0	0	0	0	464	
11	0	0	0	0	464	
12	0	0	0	0	465	
13	0	0	0	0	465	
14	0	0	0	0	466	
15	0	0	0	0	466	
0	0	0	0	0	468	
1	0	0	0	0	467	
2	0	0	0	0	468	
3	0	0	0	0	472	
4	0	0	0	0	474	
5	0	0	0	0	473	
6	0	0	0	0	473	
7	0	0	0	0	477	
8	0	0	0	0	479	
9	0	0	0	0	479	
10	0	0	0	0	481	
11	0	0	0	0	484	
12	0	0	0	0	486	
13	0	0	0	0	482	
14	0	0	0	0	482	
15	0	0	0	0	483	
0	0	0	0	0	485	
1	0	0	0	0	487	
2	0	0	0	0	486	
3	0	0	0	0	487	
4	0	0	0	0	490	
5	0	0	0	0	494	
6	0	0	0	0	494	
7	0	0	0	0	492	
8	0	0	0	0	491	
9	0	0	0	0	488	
10	0	0	0	0	484	
11	0	0	0	0	481	
12	0	0	0	0	478	
13	0	0	0	0	476	
14	0	0	0	0	477	
15	0	0	0	0	474	
0	0	0	0	0	476	
1	0	0	0	0	477	
2	0	0	0	0	476	
3	0	0	0	0	478	
4	0	0	0	0	481	
5	0	0	0	0	486	
6	0	0	0	0	489	
7	0	0	0	0	492	
8	0	0	0	0	493	
9	0	0	0	0	494	
10	0	0	0	0	495	
11	0	0	0	0	498	
12	0	0	0	0	497	
13	0	0	0	0	494	
14	0	0	0	0	494	
15	0	0	0	0	494	
0	0	0	0	0	494	
1	0	0	0	0	496	
2	0	0	0	0	497	
3	0	0	0	0	496	
4	0	0	0	0	498	
5	0	0	0	0	500	
6	0	0	0	0	501	
7	0	0	0	0	503	
8	0	0	0	0	506	
9	0	0	0	0	508	
10	0	0	0	0	509	
11	0	0	0	0	512	
12	0	0	0	0	513	
13	0	0	0	0	511	
14	0	0	0	0	509	
15	0	0	0	0	510	
0	0	0	0	0	510	
1	0	0	0	0	509	
2	0	0	0	0	509	
3	0	0	0	0	510	
4	0	0	0	0	510	
5	0	0	0	0	510	
6	0	0	0	0	512	
7	0	0	0	0	513	
8	0	0	0	0	512	
9	0	0	0	0	512	
10	0	0	0	0	512	
11	0	0	0	0	504	
12	0	0	0	0	494	
13	0	0	0	0	485	
14	0	0	0	0	473	
15	0	0	0	0	462	
0	0	0	0	0	456	
1	0	0	0	0	451	
2	0	0	0	0	444	
3	0	0	0	0	439	
4	0	0	0	0	437	
5	0	0	0	0	435	
6	0	0	0	0	433	
7	0	0	0	0	433	
8	0	0	0	0	433	
9	0	0	0	0	434	
10	0	0	0	0	434	
11	0	0	0	0	437	
12	0	0	0	0	434	
13	0	0	0	0	433	
14	0	0	0	0	433	
15	0	0	0	0	432	
0	0	0	0	0	431	
1	0	0	0	0	432	
2	0	0	0	0	431	
3	0	0	0	0	433	
4	0	0	0	0	435	
5	0	0	0	0	437	
6	0	0	0	0	441	
7	0	0	0	0	446	
8	0	0	0	0	449	
9	0	0	0	0	453	
10	0	0	0	0	456	
11	0	0	0	0	459	
12	0	0	0	0	461	
13	0	0	0	0	463	
14	0	0	0	0	463	
15	0	0	0	0	461	
0	0	0	0	0	460	
1	0	0	0	0	459	
2	0	0	0	0	459	
3	0	0	0	0	460	
4	0	0	0	0	460	
5	0	0	0	0	461	
6	0	0	0	0	464	
7	0	0	0	0	468	
8	0	0	0	0	472	
9	0	0	0	0	475	
10	0	0	0	0	475	
11	0	0	0	0	479	
12	0	0	0	0	480	
13	0	0	0	0	478	
14	0	0	0	0	480	
15	0	0	0	0	485	
0	0	0	0	0	485	
1	0	0	0	0	488	
2	0	0	0	0	489	
3	0	0	0	0	490	
4	0	0	0	0	493	
5	0	0	0	0	496	
6	0	0	0	0	500	
7	0	0	0	0	503	
8	0	0	0	0	506	
9	0	0	0	0	509	
10	0	0	0	0	513	
11	0	0	0	0	516	
12	0	0	0	0	516	
13	0	0	0	0	515	
14	0	0	0	0	513	
15	0	0	0	0	514	
0	0	0	0	0	516	
1	0	0	0	0	519	
2	0	0	0	0	519	
3	0	0	0	0	520	
4	0	0	0	0	523	
5	0	0	0	0	525	
6	0	0	0	0	528	
7	0	0	0	0	530	
8	0	0	0	0	531	
9	0	0	0	0	533	
10	0	0	0	0	534	
11	0	0	0	0	535	
12	0	0	0	0	536	
13	0	0	0	0	535	
14	0	0	0	0	536	
15	0	0	0	0	536	
0	0	0	0	0	537	
1	0	0	0	0	537	
2	0	0	0	0	540	
3	0	0	0	0	542	
4	0	0	0	0	544	
5	0	0	0	0	543	
6	0	0	0	0	543	
7	0	0	0	0	546	
8	0	0	0	0	547	
9	0	0	0	0	548	
10	0	0	0	0	549	
11	0	0	0	0	550	
12	0	0	0	0	551	
13	0	0	0	0	550	
14	0	0	0	0	551	
15	0	0	0	0	552	
0	0	0	0	0	554	
1	0	0	0	0	555	
2	0	0	0	0	554	
3	0	0	0	0	555	
4	0	0	0	0	552	
5	0	0	0	0	551	
6	0	0	0	0	551	
7	0	0	0	0	551	
8	0	0	0	0	549	
9	0	0	0	0	546	
10	0	0	0	0	545	
11	0	0	0	0	545	
12	0	0	0	0	544	
13	0	0	0	0	543	
14	0	0	0	0	542	
15	0	0	0	0	542	
0	0	0	0	0	540	
1	0	0	0	0	537	
2	0	0	0	0	536	
3	0	0	0	0	535	
4	0	0	0	0	534	
5	0	0	0	0	532	
6	0	0	0	0	532	
7	0	0	0	0	529	
8	0	0	0	0	526	
9	0	0	0	0	526	
10	0	0	0	0	524	
11	0	0	0	0	521	
12	0	0	0	0	519	
13	0	0	0	0	517	
14	0	0	0	0	516	
15	0	0	0	0	514	
0	0	0	0	0	511	
1	0	0	0	0	510	
2	0	0	0	0	506	
3	0	0	0	0	501	
4	0	0	0	0	495	
5	0	0	0	0	494	
6	0	0	0	0	492	
7	0	0	0	0	487	
8	0	0	0	0	486	
9	0	0	0	0	484	
10	0	0	0	0	482	
11	0	0	0	0	482	
12	0	0	0	0	480	
13	0	0	0	0	475	
14	0	0	0	0	473	
15	0	0	0	0	472	
0	0	0	0	0	468	
1	0	0	0	0	465	
2	0	0	0	0	463	
3	0	0	0	0	463	
4	0	0	0	0	461	
5	0	0	0	0	460	
6	0	0	0	0	457	
7	0	0	0	0	454	
8	0	0	0	0	454	
9	0	0	0	0	453	
10	0	0	0	0	451	
11	0	0	0	0	453	
12	0	0	0	0	454	
13	0	0	0	0	452	
14	0	0	0	0	452	
15	0	0	0	0	451	
0	0	0	0	0	449	
1	0	0	0	0	449	
2	0	0	0	0	450	
3	0	0	0	0	449	
4	0	0	0	0	449	
5	0	0	0	0	451	
6	0	0	0	0	450	
7	0	0	0	0	449	
8	0	0	0	0	449	
9	0	0	0	0	448	
10	0	0	0	0	448	
11	0	0	0	0	448	
12	0	0	0	0	448	
13	0	0	0	0	450	
14	0	0	0	0	451	
15	0	0	0	0	451	
0	0	0	0	0	451	
1	0	0	0	0	448	
2	0	0	0	0	446	
3	0	0	0	0	446	
4	0	0	0	0	447	
5	0	0	0	0	448	
6	0	0	0	0	446	
7	0	0	0	0	446	
8	0	0	0	0	445	
9	0	0	0	0	445	
10	0	0	0	0	446	
11	0	0	0	0	447	
12	0	0	0	0	449	
13	0	0	0	0	450	
14	0	0	0	0	451	
15	0	0	0	0	450	
0	0	0	0	0	453	
1	0	0	0	0	454	
2	0	0	0	0	452	
3	0	0	0	0	453	
4	0	0	0	0	452	
5	0	0	0	0	450	
6	0	0	0	0	450	
7	0	0	0	0	452	
8	0	0	0	0	451	
9	0	0	0	0	451	
10	0	0	0	0	453	
11	0	0	0	0	455	
12	0	0	0	0	455	
13	0	0	0	0	455	
14	0	0	0	0	455	
15	0	0	0	0	457	
0	0	0	0	0	460	
1	0	0	0	0	462	
2	0	0	0	0	463	
3	0	0	0	0	465	
4	0	0	0	0	466	
5	0	0	0	0	466	
6	0	0	0	0	465	
7	0	0	0	0	464	
8	0	0	0	0	466	
9	0	0	0	0	468	
10	0	0	0	0	468	
11	0	0	0	0	470	
12	0	0	0	0	471	
13	0	0	0	0	472	
14	0	0	0	0	474	
15	0	0	0	0	475	
0	0	0	0	0	477	
1	0	0	0	0	479	
2	0	0	0	0	481	
3	0	0	0	0	480	
4	0	0	0	0	481	
5	0	0	0	0	483	
6	0	0	0	0	483	
7	0	0	0	0	480	
8	0	0	0	0	479	
9	0	0	0	0	478	
10	0	0	0	0	477	
11	0	0	0	0	478	
12	0	0	0	0	480	
13	0	0	0	0	480	
14	0	0	0	0	481	
15	0	0	0	0	484	
0	0	0	0	0	486	
1	0	0	0	0	489	
2	0	0	0	0	490	
3	0	0	0	0	491	
4	0	0	0	0	491	
5	0	0	0	0	492	
6	0	0	0	0	493	
7	0	0	0	0	492	
8	0	0	0	0	491	
9	0	0	0	0	492	
10	0	0	0	0	491	
11	0	0	0	0	488	
12	0	0	0	0	487	
13	0	0	0	0	487	
14	0	0	0	0	487	
15	0	0	0	0	489	
0	0	0	0	0	491	
1	0	0	0	0	493	
2	0	0	0	0	493	
3	0	0	0	0	496	
4	0	0	0	0	496	
5	0	0	0	0	498	
6	0	0	0	0	501	
7	0	0	0	0	501	
8	0	0	0	0	501	
9	0	0	0	0	500	
10	0	0	0	0	500	
11	0	0	0	0	500	
12	0	0	0	0	499	
13	0	0	0	0	500	
14	0	0	0	0	500	
15	0	0	0	0	502	
0	0	0	0	0	504	
1	0	0	0	0	505	
2	0	0	0	0	505	
3	0	0	0	0	505	
4	0	0	0	0	507	
5	0	0	0	0	509	
6	0	0	0	0	510	
7	0	0	0	0	511	
8	0	0	0	0	511	
9	0	0	0	0	511	
10	0	0	0	0	510	
11	0	0	0	0	510	
12	0	0	0	0	508	
13	0	0	0	0	507	
14	0	0	0	0	506	
15	0	0	0	0	507	
0	0	0	0	0	508	
1	0	0	0	0	510	
2	0	0	0	0	510	
3	0	0	0	0	511	
4	0	0	0	0	512	
5	0	0	0	0	513	
6	0	0	0	0	513	
7	0	0	0	0	513	
8	0	0	0	0	513	
9	0	0	0	0	514	
10	0	0	0	0	512	
11	0	0	0	0	514	
12	0	0	0	0	514	
13	0	0	0	0	513	
14	0	0	0	0	513	
15	0	0	0	0	513	
0	0	0	0	0	514	
1	0	0	0	0	514	
2	0	0	0	0	515	
3	0	0	0	0	516	
4	0	0	0	0	517	
5	0	0	0	0	518	
6	0	0	0	0	517	
7	0	0	0	0	516	
8	0	0	0	0	515	
9	0	0	0	0	513	
10	0	0	0	0	512	
11	0	0	0	0	511	
12	0	0	0	0	511	
13	0	0	0	0	511	
14	0	0	0	0	511	
15	0	0	0	0	512	
0	0	0	0	0	512	
1	0	0	0	0	513	
2	0	0	0	0	513	
3	0	0	0	0	514	
4	0	0	0	0	514	
5	0	0	0	0	515	
6	0	0	0	0	512	
7	0	0	0	0	511	
8	0	0	0	0	511	
9	0	0	0	0	512	
10	0	0	0	0	511	
11	0	0	0	0	510	
12	0	0	0	0	510	
13	0	0	0	0	511	
14	0	0	0	0	512	
15	0	0	0	0	511	
0	0	0	0	0	510	
1	0	0	0	0	510	
2	0	0	0	0	510	
3	0	0	0	0	511	
4	0	0	0	0	511	
5	0	0	0	0	511	
6	0	0	0	0	511	
7	0	0	0	0	511	
8	0	0	0	0	512	
9	0	0	0	0	512	
10	0	0	0	0	511	
11	0	0	0	0	510	
12	0	0	0	0	508	
13	0	0	0	0	506	
14	0	0	0	0	506	
15	0	0	0	0	505	
0	0	0	0	0	504	
1	0	0	0	0	505	
2	0	0	0	0	506	
3	0	0	0	0	505	
4	0	0	0	0	505	
5	0	0	0	0	506	
6	0	0	0	0	507	
7	0	0	0	0	507	
8	0	0	0	0	506	
9	0	0	0	0	505	
10	0	0	0	0	505	
11	0	0	0	0	507	
12	0	0	0	0	508	
13	0	0	0	0	508	
14	0	0	0	0	509	
15	0	0	0	0	508	
0	0	0	0	0	507	
1	0	0	0	0	507	
2	0	0	0	0	506	
3	0	0	0	0	506	
4	0	0	0	0	506	
5	0	0	0	0	505	
6	0	0	0	0	505	
7	0	0	0	0	505	
8	0	0	0	0	506	
9	0	0	0	0	506	
10	0	0	0	0	507	
11	0	0	0	0	506	
12	0	0	0	0	506	
13	0	0	0	0	504	
14	0	0	0	0	503	
15	0	0	0	0	504	
0	0	0	0	0	505	
1	0	0	0	0	504	
2	0	0	0	0	504	
3	0	0	0	0	506	
4	0	0	0	0	507	
5	0	0	0	0	510	
6	0	0	0	0	512	
7	0	0	0	0	513	
8	0	0	0	0	513	
9	0	0	0	0	514	
10	0	0	0	0	515	
11	0	0	0	0	514	
12	0	0	0	0	514	
13	0	0	0	0	515	
14	0	0	0	0	514	
15	0	0	0	0	514	
0	0	0	0	0	513	
1	0	0	0	0	512	
2	0	0	0	0	512	
3	0	0	0	0	511	
4	0	0	0	0	512	
5	0	0	0	0	513	
6	0	0	0	0	513	
7	0	0	0	0	513	
8	0	0	0	0	512	
9	0	0	0	0	511	
10	0	0	0	0	510	
11	0	0	0	0	510	
12	0	0	0	0	510	
13	0	0	0	0	508	
14	0	0	0	0	507	
15	0	0	0	0	505	
0	0	0	0	0	507	
1	0	0	0	0	507	
2	0	0	0	0	507	
3	0	0	0	0	507	
4	0	0	0	0	508	
5	0	0	0	0	507	
6	0	0	0	0	508	
7	0	0	0	0	509	
8	0	0	0	0	512	
9	0	0	0	0	512	
10	0	0	0	0	513	
11	0	0	0	0	514	
12	0	0	0	0	513	
13	0	0	0	0	513	
14	0	0	0	0	514	
15	0	0	0	0	514	
0	0	0	0	0	515	
1	0	0	0	0	515	
2	0	0	0	0	513	
3	0	0	0	0	512	
4	0	0	0	0	512	
5	0	0	0	0	512	
6	0	0	0	0	513	
7	0	0	0	0	514	
8	0	0	0	0	514	
9	0	0	0	0	515	
10	0	0	0	0	515	
11	0	0	0	0	516	
12	0	0	0	0	517	
13	0	0	0	0	518	
14	0	0	0	0	519	
15	0	0	0	0	521	
0	0	0	0	0	519	
1	0	0	0	0	519	
2	0	0	0	0	519	
3	0	0	0	0	521	
4	0	0	0	0	523	
5	0	0	0	0	525	
6	0	0	0	0	526	
7	0	0	0	0	528	
8	0	0	0	0	529	
9	0	0	0	0	530	
10	0	0	0	0	530	
11	0	0	0	0	531	
12	0	0	0	0	531	
13	0	0	0	0	531	
14	0	0	0	0	528	
15	0	0	0	0	525	
0	0	0	0	0	523	
1	0	0	0	0	521	
2	0	0	0	0	519	
3	0	0	0	0	516	
4	0	0	0	0	513	
5	0	0	0	0	513	
6	0	0	0	0	513	
7	0	0	0	0	513	
8	0	0	0	0	514	
9	0	0	0	0	517	
10	0	0	0	0	519	
11	0	0	0	0	521	
12	0	0	0	0	522	
13	0	0	0	0	524	
14	0	0	0	0	524	
15	0	0	0	0	525	
0	0	0	0	0	525	
1	0	0	0	0	527	
2	0	0	0	0	527	
3	0	0	0	0	527	
4	0	0	0	0	528	
5	0	0	0	0	528	
6	0	0	0	0	529	
7	0	0	0	0	529	
8	0	0	0	0	527	
9	0	0	0	0	527	
10	0	0	0	0	526	
11	0	0	0	0	525	
12	0	0	0	0	525	
13	0	0	0	0	525	
14	0	0	0	0	522	
15	0	0	0	0	522	
0	0	0	0	0	521	
1	0	0	0	0	518	
2	0	0	0	0	514	
3	0	0	0	0	511	
4	0	0	0	0	507	
5	0	0	0	0	504	
6	0	0	0	0	503	
7	0	0	0	0	504	
8	0	0	0	0	502	
9	0	0	0	0	500	
10	0	0	0	0	499	
11	0	0	0	0	499	
12	0	0	0	0	499	
13	0	0	0	0	499	
14	0	0	0	0	499	
15	0	0	0	0	499	
0	0	0	0	0	499	
1	0	0	0	0	500	
2	0	0	0	0	501	
3	0	0	0	0	501	
4	0	0	0	0	504	
5	0	0	0	0	505	
6	0	0	0	0	507	
7	0	0	0	0	510	
8	0	0	0	0	513	
9	0	0	0	0	517	
10	0	0	0	0	522	
11	0	0	0	0	527	
12	0	0	0	0	528	
13	0	0	0	0	529	
14	0	0	0	0	530	
15	0	0	0	0	530	
0	0	0	0	0	531	
1	0	0	0	0	532	
2	0	0	0	0	531	
3	0	0	0	0	529	
4	0	0	0	0	527	
5	0	0	0	0	528	
6	0	0	0	0	528	
7	0	0	0	0	530	
8	0	0	0	0	531	
9	0	0	0	0	530	
10	0	0	0	0	528	
11	0	0	0	0	526	
12	0	0	0	0	523	
13	0	0	0	0	520	
14	0	0	0	0	519	
15	0	0	0	0	518	
0	0	0	0	0	516	
1	0	0	0	0	513	
2	0	0	0	0	511	
3	0	0	0	0	509	
4	0	0	0	0	508	
5	0	0	0	0	507	
6	0	0	0	0	505	
7	0	0	0	0	505	
8	0	0	0	0	504	
9	0	0	0	0	503	
10	0	0	0	0	503	
11	0	0	0	0	503	
12	0	0	0	0	504	
13	0	0	0	0	504	
14	0	0	0	0	504	
15	0	0	0	0	504	
0	0	0	0	0	503	
1	0	0	0	0	501	
2	0	0	0	0	502	
3	0	0	0	0	502	
4	0	0	0	0	501	
5	0	0	0	0	499	
6	0	0	0	0	498	
7	0	0	0	0	497	
8	0	0	0	0	497	
9	0	0	0	0	499	
10	0	0	0	0	499	
11	0	0	0	0	500	
12	0	0	0	0	502	
13	0	0	0	0	503	
14	0	0	0	0	504	
15	0	0	0	0	504	
0	0	0	0	0	502	
1	0	0	0	0	500	
2	0	0	0	0	498	
3	0	0	0	0	495	
4	0	0	0	0	493	
5	0	0	0	0	491	
6	0	0	0	0	489	
7	0	0	0	0	489	
8	0	0	0	0	489	
9	0	0	0	0	491	
10	0	0	0	0	495	
11	0	0	0	0	501	
12	0	0	0	0	506	
13	0	0	0	0	511	
14	0	0	0	0	516	
15	0	0	0	0	522	
0	0	0	0	0	529	
1	0	0	0	0	535	
2	0	0	0	0	542	
3	0	0	0	0	550	
4	0	0	0	0	559	
5	0	0	0	0	568	
6	0	0	0	0	579	
7	0	0	0	0	595	
8	0	0	0	0	611	
9	0	0	0	0	628	
10	0	0	0	0	649	
11	0	0	0	0	670	
12	0	0	0	0	689	
13	0	0	0	0	708	
14	0	0	0	0	727	
15	0	0	0	0	748	
0	0	0	0	0	768	
1	0	0	0	0	790	
2	0	0	0	0	811	
3	0	0	0	0	828	
4	0	0	0	0	843	
5	0	0	0	0	851	
6	0	0	0	0	851	
7	0	0	0	0	844	
8	0	0	0	0	837	
9	0	0	0	0	827	
10	0	0	0	0	808	
11	0	0	0	0	789	
12	0	0	0	0	766	
13	0	0	0	0	738	
14	0	0	0	0	706	
15	0	0	0	0	672	
0	0	0	0	0	635	
1	0	0	0	0	596	
2	0	0	0	0	554	
3	0	0	0	0	513	
4	0	0	0	0	475	
5	0	0	0	0	440	
6	0	0	0	0	411	
7	0	0	0	0	393	
8	0	0	0	0	383	
9	0	0	0	0	379	
10	0	0	0	0	380	
11	0	0	0	0	385	
12	0	0	0	0	392	
13	0	0	0	0	402	
14	0	0	0	0	412	
15	0	0	0	0	423	
0	0	0	0	0	430	
1	0	0	0	0	436	
2	0	0	0	0	441	
3	0	0	0	0	446	
4	0	0	0	0	452	
5	0	0	0	0	455	
6	0	0	0	0	459	
7	0	0	0	0	460	
8	0	0	0	0	462	
9	0	0	0	0	462	
10	0	0	0	0	463	
11	0	0	0	0	463	
12	0	0	0	0	464	
13	0	0	0	0	464	
14	0	0	0	0	465	
15	0	0	0	0	466	
0	0	0	0	0	468	
1	0	0	0	0	468	
2	0	0	0	0	469	
3	0	0	0	0	470	
4	0	0	0	0	470	
5	0	0	0	0	471	
6	0	0	0	0	471	
7	0	0	0	0	470	
8	0	0	0	0	471	
9	0	0	0	0	472	
10	0	0	0	0	472	
11	0	0	0	0	472	
12	0	0	0	0	471	
13	0	0	0	0	472	
14	0	0	0	0	471	
15	0	0	0	0	471	
0	0	0	0	0	472	
1	0	0	0	0	473	
2	0	0	0	0	473	
3	0	0	0	0	473	
4	0	0	0	0	473	
5	0	0	0	0	474	
6	0	0	0	0	475	
7	0	0	0	0	477	
8	0	0	0	0	477	
9	0	0	0	0	477	
10	0	0	0	0	478	
11	0	0	0	0	478	
12	0	0	0	0	479	
13	0	0	0	0	480	
14	0	0	0	0	481	
15	0	0	0	0	482	
0	0	0	0	0	483	
1	0	0	0	0	484	
2	0	0	0	0	484	
3	0	0	0	0	484	
4	0	0	0	0	484	
5	0	0	0	0	486	
6	0	0	0	0	487	
7	0	0	0	0	487	
8	0	0	0	0	487	
9	0	0	0	0	487	
10	0	0	0	0	488	
11	0	0	0	0	487	
12	0	0	0	0	486	
13	0	0	0	0	487	
14	0	0	0	0	489	
15	0	0	0	0	492	
0	0	0	0	0	494	
1	0	0	0	0	495	
2	0	0	0	0	496	
3	0	0	0	0	496	
4	0	0	0	0	495	
5	0	0	0	0	495	
6	0	0	0	0	496	
7	0	0	0	0	497	
8	0	0	0	0	497	
9	0	0	0	0	497	
10	0	0	0	0	498	
11	0	0	0	0	498	
12	0	0	0	0	499	
13	0	0	0	0	499	
14	0	0	0	0	497	
15	0	0	0	0	496	
0	0	0	0	0	496	
1	0	0	0	0	495	
2	0	0	0	0	496	
3	0	0	0	0	499	
4	0	0	0	0	501	
5	0	0	0	0	504	
6	0	0	0	0	505	
7	0	0	0	0	504	
8	0	0	0	0	504	
9	0	0	0	0	505	
10	0	0	0	0	505	
11	0	0	0	0	503	
12	0	0	0	0	501	
13	0	0	0	0	500	
14	0	0	0	0	499	
15	0	0	0	0	498	
0	0	0	0	0	499	
1	0	0	0	0	499	
2	0	0	0	0	498	
3	0	0	0	0	498	
4	0	0	0	0	499	
5	0	0	0	0	499	
6	0	0	0	0	500	
7	0	0	0	0	501	
8	0	0	0	0	502	
9	0	0	0	0	504	
10	0	0	0	0	504	
11	0	0	0	0	505	
12	0	0	0	0	505	
13	0	0	0	0	506	
14	0	0	0	0	507	
15	0	0	0	0	507	
0	0	0	0	0	507	
1	0	0	0	0	507	
2	0	0	0	0	508	
3	0	0	0	0	509	
4	0	0	0	0	510	
5	0	0	0	0	511	
6	0	0	0	0	512	
7	0	0	0	0	512	
8	0	0	0	0	513	
9	0	0	0	0	514	
10	0	0	0	0	514	
11	0	0	0	0	514	
12	0	0	0	0	514	
13	0	0	0	0	513	
14	0	0	0	0	514	
15	0	0	0	0	513	
0	0	0	0	0	513	
1	0	0	0	0	514	
2	0	0	0	0	514	
3	0	0	0	0	515	
4	0	0	0	0	518	
5	0	0	0	0	520	
6	0	0	0	0	521	
7	0	0	0	0	523	
8	0	0	0	0	522	
9	0	0	0	0	522	
10	0	0	0	0	523	
11	0	0	0	0	524	
12	0	0	0	0	526	
13	0	0	0	0	526	
14	0	0	0	0	528	
15	0	0	0	0	530	
0	0	0	0	0	531	
1	0	0	0	0	533	
2	0	0	0	0	536	
3	0	0	0	0	536	
4	0	0	0	0	537	
5	0	0	0	0	539	
6	0	0	0	0	539	
7	0	0	0	0	540	
8	0	0	0	0	541	
9	0	0	0	0	541	
10	0	0	0	0	541	
11	0	0	0	0	542	
12	0	0	0	0	541	
13	0	0	0	0	541	
14	0	0	0	0	541	
15	0	0	0	0	542	
0	0	0	0	0	541	
1	0	0	0	0	543	
2	0	0	0	0	544	
3	0	0	0	0	544	
4	0	0	0	0	545	
5	0	0	0	0	546	
6	0	0	0	0	547	
7	0	0	0	0	548	
8	0	0	0	0	548	
9	0	0	0	0	550	
10	0	0	0	0	551	
11	0	0	0	0	553	
12	0	0	0	0	553	
13	0	0	0	0	553	
14	0	0	0	0	556	
15	0	0	0	0	557	
0	0	0	0	0	559	
1	0	0	0	0	561	
2	0	0	0	0	562	
3	0	0	0	0	563	
4	0	0	0	0	563	
5	0	0	0	0	563	
6	0	0	0	0	564	
7	0	0	0	0	566	
8	0	0	0	0	567	
9	0	0	0	0	568	
10	0	0	0	0	569	
11	0	0	0	0	571	
12	0	0	0	0	571	
13	0	0	0	0	572	
14	0	0	0	0	572	
15	0	0	0	0	571	
0	0	0	0	0	570	
1	0	0	0	0	570	
2	0	0	0	0	570	
3	0	0	0	0	570	
4	0	0	0	0	572	
5	0	0	0	0	574	
6	0	0	0	0	576	
7	0	0	0	0	579	
8	0	0	0	0	579	
9	0	0	0	0	581	
10	0	0	0	0	583	
11	0	0	0	0	582	
12	0	0	0	0	582	
13	0	0	0	0	580	
14	0	0	0	0	579	
15	0	0	0	0	578	
0	0	0	0	0	576	
1	0	0	0	0	576	
2	0	0	0	0	575	
3	0	0	0	0	574	
4	0	0	0	0	574	
5	0	0	0	0	574	
6	0	0	0	0	573	
7	0	0	0	0	573	
8	0	0	0	0	575	
9	0	0	0	0	577	
10	0	0	0	0	576	
11	0	0	0	0	575	
12	0	0	0	0	572	
13	0	0	0	0	569	
14	0	0	0	0	567	
15	0	0	0	0	565	
0	0	0	0	0	563	
1	0	0	0	0	561	
2	0	0	0	0	560	
3	0	0	0	0	558	
4	0	0	0	0	558	
5	0	0	0	0	556	
6	0	0	0	0	555	
7	0	0	0	0	554	
8	0	0	0	0	552	
9	0	0	0	0	550	
10	0	0	0	0	548	
11	0	0	0	0	546	
12	0	0	0	0	543	
13	0	0	0	0	540	
14	0	0	0	0	537	
15	0	0	0	0	535	
0	0	0	0	0	531	
1	0	0	0	0	527	
2	0	0	0	0	523	
3	0	0	0	0	520	
4	0	0	0	0	519	
5	0	0	0	0	516	
6	0	0	0	0	512	
7	0	0	0	0	509	
8	0	0	0	0	507	
9	0	0	0	0	505	
10	0	0	0	0	503	
11	0	0	0	0	501	
12	0	0	0	0	499	
13	0	0	0	0	496	
14	0	0	0	0	494	
15	0	0	0	0	491	
0	0	0	0	0	488	
1	0	0	0	0	486	
2	0	0	0	0	483	
3	0	0	0	0	481	
4	0	0	0	0	478	
5	0	0	0	0	475	
6	0	0	0	0	474	
7	0	0	0	0	472	
8	0	0	0	0	471	
9	0	0	0	0	470	
10	0	0	0	0	468	
11	0	0	0	0	466	
12	0	0	0	0	465	
13	0	0	0	0	465	
14	0	0	0	0	464	
15	0	0	0	0	463	
0	0	0	0	0	462	
1	0	0	0	0	460	
2	0	0	0	0	457	
3	0	0	0	0	455	
4	0	0	0	0	452	
5	0	0	0	0	448	
6	0	0	0	0	446	
7	0	0	0	0	445	
8	0	0	0	0	444	
9	0	0	0	0	443	
10	0	0	0	0	443	
11	0	0	0	0	444	
12	0	0	0	0	444	
13	0	0	0	0	444	
14	0	0	0	0	445	
15	0	0	0	0	445	
0	0	0	0	0	445	
1	0	0	0	0	445	
2	0	0	0	0	443	
3	0	0	0	0	441	
4	0	0	0	0	440	
5	0	0	0	0	439	
6	0	0	0	0	438	
7	0	0	0	0	438	
8	0	0	0	0	438	
9	0	0	0	0	439	
10	0	0	0	0	440	
11	0	0	0	0	442	
12	0	0	0	0	442	
13	0	0	0	0	444	
14	0	0	0	0	446	
15	0	0	0	0	446	
0	0	0	0	0	447	
1	0	0	0	0	448	
2	0	0	0	0	448	
3	0	0	0	0	448	
4	0	0	0	0	449	
5	0	0	0	0	449	
6	0	0	0	0	449	
7	0	0	0	0	449	
8	0	0	0	0	451	
9	0	0	0	0	451	
10	0	0	0	0	451	
11	0	0	0	0	450	
12	0	0	0	0	450	
13	0	0	0	0	450	
14	0	0	0	0	451	
15	0	0	0	0	451	
0	0	0	0	0	451	
1	0	0	0	0	451	
2	0	0	0	0	451	
3	0	0	0	0	451	
4	0	0	0	0	451	
5	0	0	0	0	452	
6	0	0	0	0	454	
7	0	0	0	0	454	
8	0	0	0	0	455	
9	0	0	0	0	455	
10	0	0	0	0	455	
11	0	0	0	0	456	
12	0	0	0	0	457	
13	0	0	0	0	458	
14	0	0	0	0	458	
15	0	0	0	0	460	
0	0	0	0	0	462	
1	0	0	0	0	463	
2	0	0	0	0	464	
3	0	0	0	0	465	
4	0	0	0	0	465	
5	0	0	0	0	465	
6	0	0	0	0	466	
7	0	0	0	0	467	
8	0	0	0	0	468	
9	0	0	0	0	467	
10	0	0	0	0	469	
11	0	0	0	0	469	
12	0	0	0	0	469	
13	0	0	0	0	471	
14	0	0	0	0	471	
15	0	0	0	0	471	
0	0	0	0	0	471	
1	0	0	0	0	471	
2	0	0	0	0	471	
3	0	0	0	0	471	
4	0	0	0	0	472	
5	0	0	0	0	472	
6	0	0	0	0	473	
7	0	0	0	0	474	
8	0	0	0	0	473	
9	0	0	0	0	473	
10	0	0	0	0	474	
11	0	0	0	0	475	
12	0	0	0	0	476	
13	0	0	0	0	477	
14	0	0	0	0	479	
15	0	0	0	0	481	
0	0	0	0	0	482	
1	0	0	0	0	484	
2	0	0	0	0	485	
3	0	0	0	0	487	
4	0	0	0	0	486	
5	0	0	0	0	485	
6	0	0	0	0	485	
7	0	0	0	0	485	
8	0	0	0	0	486	
9	0	0	0	0	486	
10	0	0	0	0	485	
11	0	0	0	0	486	
12	0	0	0	0	486	
13	0	0	0	0	488	
14	0	0	0	0	490	
15	0	0	0	0	491	
0	0	0	0	0	493	
1	0	0	0	0	492	
2	0	0	0	0	492	
3	0	0	0	0	492	
4	0	0	0	0	493	
5	0	0	0	0	494	
6	0	0	0	0	494	
7	0	0	0	0	494	
8	0	0	0	0	494	
9	0	0	0	0	494	
10	0	0	0	0	494	
11	0	0	0	0	495	
12	0	0	0	0	496	
13	0	0	0	0	497	
14	0	0	0	0	497	
15	0	0	0	0	498	
0	0	0	0	0	499	
1	0	0	0	0	499	
2	0	0	0	0	499	
3	0	0	0	0	499	
4	0	0	0	0	499	
5	0	0	0	0	499	
6	0	0	0	0	499	
7	0	0	0	0	498	
8	0	0	0	0	497	
9	0	0	0	0	497	
10	0	0	0	0	496	
11	0	0	0	0	497	
12	0	0	0	0	499	
13	0	0	0	0	500	
14	0	0	0	0	501	
15	0	0	0	0	502	
0	0	0	0	0	503	
1	0	0	0	0	503	
2	0	0	0	0	505	
3	0	0	0	0	505	
4	0	0	0	0	505	
5	0	0	0	0	506	
6	0	0	0	0	506	
7	0	0	0	0	507	
8	0	0	0	0	507	
9	0	0	0	0	506	
10	0	0	0	0	507	
11	0	0	0	0	508	
12	0	0	0	0	509	
13	0	0	0	0	510	
14	0	0	0	0	510	
15	0	0	0	0	509	
0	0	0	0	0	510	
1	0	0	0	0	509	
2	0	0	0	0	509	
3	0	0	0	0	509	
4	0	0	0	0	508	
5	0	0	0	0	508	
6	0	0	0	0	507	
7	0	0	0	0	507	
8	0	0	0	0	505	
9	0	0	0	0	504	
10	0	0	0	0	503	
11	0	0	0	0	503	
12	0	0	0	0	503	
13	0	0	0	0	503	
14	0	0	0	0	503	
15	0	0	0	0	504	
0	0	0	0	0	504	
1	0	0	0	0	505	
2	0	0	0	0	505	
3	0	0	0	0	506	
4	0	0	0	0	506	
5	0	0	0	0	508	
6	0	0	0	0	509	
7	0	0	0	0	509	
8	0	0	0	0	509	
9	0	0	0	0	509	
10	0	0	0	0	509	
11	0	0	0	0	510	
12	0	0	0	0	510	
13	0	0	0	0	510	
14	0	0	0	0	511	
15	0	0	0	0	510	
0	0	0	0	0	510	
1	0	0	0	0	509	
2	0	0	0	0	509	
3	0	0	0	0	509	
4	0	0	0	0	510	
5	0	0	0	0	511	
6	0	0	0	0	510	
7	0	0	0	0	510	
8	0	0	0	0	509	
9	0	0	0	0	508	
10	0	0	0	0	508	
11	0	0	0	0	506	
12	0	0	0	0	506	
13	0	0	0	0	507	
14	0	0	0	0	507	
15	0	0	0	0	508	
0	0	0	0	0	508	
1	0	0	0	0	508	
2	0	0	0	0	509	
3	0	0	0	0	511	
4	0	0	0	0	512	
5	0	0	0	0	512	
6	0	0	0	0	512	
7	0	0	0	0	512	
8	0	0	0	0	513	
9	0	0	0	0	514	
10	0	0	0	0	513	
11	0	0	0	0	512	
12	0	0	0	0	511	
13	0	0	0	0	510	
14	0	0	0	0	510	
15	0	0	0	0	509	
0	0	0	0	0	510	
1	0	0	0	0	510	
2	0	0	0	0	510	
3	0	0	0	0	510	
4	0	0	0	0	510	
5	0	0	0	0	510	
6	0	0	0	0	511	
7	0	0	0	0	510	
8	0	0	0	0	510	
9	0	0	0	0	511	
10	0	0	0	0	511	
11	0	0	0	0	509	
12	0	0	0	0	508	
13	0	0	0	0	508	
14	0	0	0	0	506	
15	0	0	0	0	507	
0	0	0	0	0	508	
1	0	0	0	0	510	
2	0	0	0	0	511	
3	0	0	0	0	512	
4	0	0	0	0	513	
5	0	0	0	0	515	
6	0	0	0	0	515	
7	0	0	0	0	515	
8	0	0	0	0	515	
9	0	0	0	0	515	
10	0	0	0	0	514	
11	0	0	0	0	512	
12	0	0	0	0	511	
13	0	0	0	0	509	
14	0	0	0	0	509	
15	0	0	0	0	508	
0	0	0	0	0	507	
1	0	0	0	0	507	
2	0	0	0	0	508	
3	0	0	0	0	508	
4	0	0	0	0	508	
5	0	0	0	0	508	
6	0	0	0	0	509	
7	0	0	0	0	509	
8	0	0	0	0	508	
9	0	0	0	0	508	
10	0	0	0	0	508	
11	0	0	0	0	509	
12	0	0	0	0	509	
13	0	0	0	0	509	
14	0	0	0	0	508	
15	0	0	0	0	507	
0	0	0	0	0	508	
1	0	0	0	0	509	
2	0	0	0	0	511	
3	0	0	0	0	510	
4	0	0	0	0	510	
5	0	0	0	0	511	
6	0	0	0	0	512	
7	0	0	0	0	513	
8	0	0	0	0	514	
9	0	0	0	0	515	
10	0	0	0	0	516	
11	0	0	0	0	516	
12	0	0	0	0	516	
13	0	0	0	0	516	
14	0	0	0	0	516	
15	0	0	0	0	518	
0	0	0	0	0	518	
1	0	0	0	0	518	
2	0	0	0	0	519	
3	0	0	0	0	519	
4	0	0	0	0	519	
5	0	0	0	0	520	
6	0	0	0	0	520	
7	0	0	0	0	521	
8	0	0	0	0	521	
9	0	0	0	0	523	
10	0	0	0	0	522	
11	0	0	0	0	521	
12	0	0	0	0	520	
13	0	0	0	0	520	
14	0	0	0	0	519	
15	0	0	0	0	518	
0	0	0	0	0	517	
1	0	0	0	0	517	
2	0	0	0	0	518	
3	0	0	0	0	519	
4	0	0	0	0	520	
5	0	0	0	0	520	
6	0	0	0	0	521	
7	0	0	0	0	522	
8	0	0	0	0	522	
9	0	0	0	0	521	
10	0	0	0	0	520	
11	0	0	0	0	519	
12	0	0	0	0	519	
13	0	0	0	0	519	
14	0	0	0	0	518	
15	0	0	0	0	519	
0	0	0	0	0	520	
1	0	0	0	0	520	
2	0	0	0	0	520	
3	0	0	0	0	521	
4	0	0	0	0	522	
5	0	0	0	0	523	
6	0	0	0	0	524	
7	0	0	0	0	525	
8	0	0	0	0	525	
9	0	0	0	0	526	
10	0	0	0	0	527	
11	0	0	0	0	527	
12	0	0	0	0	526	
13	0	0	0	0	526	
14	0	0	0	0	526	
15	0	0	0	0	525	
0	0	0	0	0	525	
1	0	0	0	0	526	
2	0	0	0	0	526	
3	0	0	0	0	525	
4	0	0	0	0	525	
5	0	0	0	0	525	
6	0	0	0	0	526	
7	0	0	0	0	526	
8	0	0	0	0	527	
9	0	0	0	0	528	
10	0	0	0	0	529	
11	0	0	0	0	529	
12	0	0	0	0	529	
13	0	0	0	0	529	
14	0	0	0	0	528	
15	0	0	0	0	527	
0	0	0	0	0	528	
1	0	0	0	0	529	
2	0	0	0	0	529	
3	0	0	0	0	531	
4	0	0	0	0	532	
5	0	0	0	0	533	
6	0	0	0	0	534	
7	0	0	0	0	535	
8	0	0	0	0	536	
9	0	0	0	0	537	
10	0	0	0	0	538	
11	0	0	0	0	537	
12	0	0	0	0	538	
13	0	0	0	0	539	
14	0	0	0	0	540	
15	0	0	0	0	542	
0	0	0	0	0	543	
1	0	0	0	0	544	
2	0	0	0	0	545	
3	0	0	0	0	547	
4	0	0	0	0	549	
5	0	0	0	0	551	
6	0	0	0	0	553	
7	0	0	0	0	555	
8	0	0	0	0	555	
9	0	0	0	0	555	
10	0	0	0	0	554	
11	0	0	0	0	552	
12	0	0	0	0	551	
13	0	0	0	0	550	
14	0	0	0	0	549	
15	0	0	0	0	547	
0	0	0	0	0	544	
1	0	0	0	0	541	
2	0	0	0	0	537	
3	0	0	0	0	534	
4	0	0	0	0	531	
5	0	0	0	0	528	
6	0	0	0	0	527	
7	0	0	0	0	528	
8	0	0	0	0	529	
9	0	0	0	0	532	
10	0	0	0	0	535	
11	0	0	0	0	536	
12	0	0	0	0	539	
13	0	0	0	0	541	
14	0	0	0	0	542	
15	0	0	0	0	543	
0	0	0	0	0	543	
1	0	0	0	0	544	
2	0	0	0	0	544	
3	0	0	0	0	545	
4	0	0	0	0	545	
5	0	0	0	0	546	
6	0	0	0	0	547	
7	0	0	0	0	547	
8	0	0	0	0	547	
9	0	0	0	0	546	
10	0	0	0	0	546	
11	0	0	0	0	546	
12	0	0	0	0	544	
13	0	0	0	0	543	
14	0	0	0	0	543	
15	0	0	0	0	540	
0	0	0	0	0	540	
1	0	0	0	0	537	
2	0	0	0	0	535	
3	0	0	0	0	532	
4	0	0	0	0	529	
5	0	0	0	0	527	
6	0	0	0	0	526	
7	0	0	0	0	524	
8	0	0	0	0	522	
9	0	0	0	0	521	
10	0	0	0	0	520	
11	0	0	0	0	522	
12	0	0	0	0	524	
13	0	0	0	0	525	
14	0	0	0	0	526	
15	0	0	0	0	526	
0	0	0	0	0	527	
1	0	0	0	0	527	
2	0	0	0	0	527	
3	0	0	0	0	528	
4	0	0	0	0	529	
5	0	0	0	0	530	
6	0	0	0	0	530	
7	0	0	0	0	530	
8	0	0	0	0	530	
9	0	0	0	0	530	
10	0	0	0	0	531	
11	0	0	0	0	531	
12	0	0	0	0	531	
13	0	0	0	0	532	
14	0	0	0	0	531	
15	0	0	0	0	531	
0	0	0	0	0	529	
1	0	0	0	0	526	
2	0	0	0	0	523	
3	0	0	0	0	520	
4	0	0	0	0	519	
5	0	0	0	0	518	
6	0	0	0	0	517	
7	0	0	0	0	517	
8	0	0	0	0	516	
9	0	0	0	0	516	
10	0	0	0	0	516	
11	0	0	0	0	515	
12	0	0	0	0	514	
13	0	0	0	0	513	
14	0	0	0	0	513	
15	0	0	0	0	514	
0	0	0	0	0	514	
1	0	0	0	0	513	
2	0	0	0	0	514	
3	0	0	0	0	514	
4	0	0	0	0	514	
5	0	0	0	0	513	
6	0	0	0	0	513	
7	0	0	0	0	513	
8	0	0	0	0	514	
9	0	0	0	0	514	
10	0	0	0	0	515	
11	0	0	0	0	516	
12	0	0	0	0	516	
13	0	0	0	0	516	
14	0	0	0	0	516	
15	0	0	0	0	516	
0	0	0	0	0	518	
1	0	0	0	0	519	
2	0	0	0	0	519	
3	0	0	0	0	520	
4	0	0	0	0	521	
5	0	0	0	0	522	
6	0	0	0	0	523	
7	0	0	0	0	524	
8	0	0	0	0	524	
9	0	0	0	0	524	
10	0	0	0	0	524	
11	0	0	0	0	522	
12	0	0	0	0	522	
13	0	0	0	0	522	
14	0	0	0	0	521	
15	0	0	0	0	519	
0	0	0	0	0	516	
1	0	0	0	0	515	
2	0	0	0	0	512	
3	0	0	0	0	510	
4	0	0	0	0	508	
5	0	0	0	0	507	
6	0	0	0	0	505	
7	0	0	0	0	504	
8	0	0	0	0	504	
9	0	0	0	0	507	
10	0	0	0	0	511	
11	0	0	0	0	514	
12	0	0	0	0	520	
13	0	0	0	0	527	
14	0	0	0	0	535	
15	0	0	0	0	544	
0	0	0	0	0	552	
1	0	0	0	0	561	
2	0	0	0	0	570	
3	0	0	0	0	583	
4	0	0	0	0	596	
5	0	0	0	0	611	
6	0	0	0	0	630	
7	0	0	0	0	651	
8	0	0	0	0	672	
9	0	0	0	0	695	
10	0	0	0	0	718	
11	0	0	0	0	743	
12	0	0	0	0	768	
13	0	0	0	0	792	
14	0	0	0	0	816	
15	0	0	0	0	844	
0	0	0	0	0	873	
1	0	0	0	0	903	
2	0	0	0	0	931	
3	0	0	0	0	955	
4	0	0	0	0	976	
5	0	0	0	0	990	
6	0	0	0	0	995	
7	0	0	0	0	996	
8	0	0	0	0	991	
9	0	0	0	0	983	
10	0	0	0	0	969	
11	0	0	0	0	945	
12	0	0	0	0	915	
13	0	0	0	0	879	
14	0	0	0	0	836	
15	0	0	0	0	791	
0	0	0	0	0	743	
1	0	0	0	0	698	
2	0	0	0	0	650	
3	0	0	0	0	602	
4	0	0	0	0	555	
5	0	0	0	0	510	
6	0	0	0	0	471	
7	0	0	0	0	443	
8	0	0	0	0	424	
9	0	0	0	0	414	
10	0	0	0	0	412	
11	0	0	0	0	417	
12	0	0	0	0	424	
13	0	0	0	0	432	
14	0	0	0	0	440	
15	0	0	0	0	447	
0	0	0	0	0	454	
1	0	0	0	0	459	
2	0	0	0	0	464	
3	0	0	0	0	471	
4	0	0	0	0	476	
5	0	0	0	0	482	
6	0	0	0	0	487	
7	0	0	0	0	491	
8	0	0	0	0	493	
9	0	0	0	0	495	
10	0	0	0	0	494	
11	0	0	0	0	490	
12	0	0	0	0	486	
13	0	0	0	0	482	
14	0	0	0	0	479	
15	0	0	0	0	475	
0	0	0	0	0	472	
1	0	0	0	0	471	
2	0	0	0	0	468	
3	0	0	0	0	466	
4	0	0	0	0	463	
5	0	0	0	0	460	
6	0	0	0	0	460	
7	0	0	0	0	459	
8	0	0	0	0	458	
9	0	0	0	0	457	
10	0	0	0	0	457	
11	0	0	0	0	456	
12	0	0	0	0	455	
13	0	0	0	0	455	
14	0	0	0	0	454	
15	0	0	0	0	453	
0	0	0	0	0	452	
1	0	0	0	0	453	
2	0	0	0	0	453	
3	0	0	0	0	453	
4	0	0	0	0	453	
5	0	0	0	0	453	
6	0	0	0	0	452	
7	0	0	0	0	454	
8	0	0	0	0	454	
9	0	0	0	0	454	
10	0	0	0	0	454	
11	0	0	0	0	454	
12	0	0	0	0	455	
13	0	0	0	0	454	
14	0	0	0	0	454	
15	0	0	0	0	455	
0	0	0	0	0	456	
1	0	0	0	0	458	
2	0	0	0	0	458	
3	0	0	0	0	459	
4	0	0	0	0	459	
5	0	0	0	0	461	
6	0	0	0	0	462	
7	0	0	0	0	462	
8	0	0	0	0	462	
9	0	0	0	0	462	
10	0	0	0	0	461	
11	0	0	0	0	461	
12	0	0	0	0	462	
13	0	0	0	0	462	
14	0	0	0	0	462	
15	0	0	0	0	462	
0	0	0	0	0	463	
1	0	0	0	0	465	
2	0	0	0	0	467	
3	0	0	0	0	468	
4	0	0	0	0	470	
5	0	0	0	0	471	
6	0	0	0	0	472	
7	0	0	0	0	473	
8	0	0	0	0	473	
9	0	0	0	0	472	
10	0	0	0	0	471	
11	0	0	0	0	470	
12	0	0	0	0	470	
13	0	0	0	0	471	
14	0	0	0	0	472	
15	0	0	0	0	473	
0	0	0	0	0	475	
1	0	0	0	0	476	
2	0	0	0	0	477	
3	0	0	0	0	477	
4	0	0	0	0	478	
5	0	0	0	0	478	
6	0	0	0	0	478	
7	0	0	0	0	477	
8	0	0	0	0	476	
9	0	0	0	0	476	
10	0	0	0	0	476	
11	0	0	0	0	476	
12	0	0	0	0	477	
13	0	0	0	0	477	
14	0	0	0	0	478	
15	0	0	0	0	478	
0	0	0	0	0	480	
1	0	0	0	0	482	
2	0	0	0	0	483	
3	0	0	0	0	485	
4	0	0	0	0	487	
5	0	0	0	0	489	
6	0	0	0	0	491	
7	0	0	0	0	493	
8	0	0	0	0	494	
9	0	0	0	0	493	
10	0	0	0	0	494	
11	0	0	0	0	496	
12	0	0	0	0	496	
13	0	0	0	0	495	
14	0	0	0	0	495	
15	0	0	0	0	495	
0	0	0	0	0	495	
1	0	0	0	0	496	
2	0	0	0	0	498	
3	0	0	0	0	498	
4	0	0	0	0	499	
5	0	0	0	0	501	
6	0	0	0	0	502	
7	0	0	0	0	503	
8	0	0	0	0	505	
9	0	0	0	0	506	
10	0	0	0	0	507	
11	0	0	0	0	508	
12	0	0	0	0	509	
13	0	0	0	0	509	
14	0	0	0	0	508	
15	0	0	0	0	508	
0	0	0	0	0	508	
1	0	0	0	0	509	
2	0	0	0	0	510	
3	0	0	0	0	511	
4	0	0	0	0	511	
5	0	0	0	0	512	
6	0	0	0	0	513	
7	0	0	0	0	513	
8	0	0	0	0	514	
9	0	0	0	0	515	
10	0	0	0	0	515	
11	0	0	0	0	516	
12	0	0	0	0	516	
13	0	0	0	0	516	
14	0	0	0	0	516	
15	0	0	0	0	516	
0	0	0	0	0	516	
1	0	0	0	0	517	
2	0	0	0	0	518	
3	0	0	0	0	520	
4	0	0	0	0	522	
5	0	0	0	0	524	
6	0	0	0	0	525	
7	0	0	0	0	526	
8	0	0	0	0	526	
9	0	0	0	0	527	
10	0	0	0	0	527	
11	0	0	0	0	528	
12	0	0	0	0	529	
13	0	0	0	0	531	
14	0	0	0	0	532	
15	0	0	0	0	533	
0	0	0	0	0	535	
1	0	0	0	0	536	
2	0	0	0	0	538	
3	0	0	0	0	539	
4	0	0	0	0	541	
5	0	0	0	0	543	
6	0	0	0	0	543	
7	0	0	0	0	544	
8	0	0	0	0	545	
9	0	0	0	0	547	
10	0	0	0	0	547	
11	0	0	0	0	548	
12	0	0	0	0	549	
13	0	0	0	0	550	
14	0	0	0	0	550	
15	0	0	0	0	551	
0	0	0	0	0	552	
1	0	0	0	0	553	
2	0	0	0	0	552	
3	0	0	0	0	552	
4	0	0	0	0	554	
5	0	0	0	0	555	
6	0	0	0	0	556	
7	0	0	0	0	558	
8	0	0	0	0	559	
9	0	0	0	0	559	
10	0	0	0	0	560	
11	0	0	0	0	561	
12	0	0	0	0	561	
13	0	0	0	0	562	
14	0	0	0	0	562	
15	0	0	0	0	562	
0	0	0	0	0	563	
1	0	0	0	0	562	
2	0	0	0	0	563	
3	0	0	0	0	564	
4	0	0	0	0	565	
5	0	0	0	0	567	
6	0	0	0	0	568	
7	0	0	0	0	570	
8	0	0	0	0	572	
9	0	0	0	0	573	
10	0	0	0	0	574	
11	0	0	0	0	573	
12	0	0	0	0	572	
13	0	0	0	0	573	
14	0	0	0	0	573	
15	0	0	0	0	572	
0	0	0	0	0	572	
1	0	0	0	0	572	
2	0	0	0	0	572	
3	0	0	0	0	571	
4	0	0	0	0	572	
5	0	0	0	0	572	
6	0	0	0	0	571	
7	0	0	0	0	570	
8	0	0	0	0	570	
9	0	0	0	0	571	
10	0	0	0	0	570	
11	0	0	0	0	570	
12	0	0	0	0	570	
13	0	0	0	0	569	
14	0	0	0	0	568	
15	0	0	0	0	567	
0	0	0	0	0	565	
1	0	0	0	0	564	
2	0	0	0	0	563	
3	0	0	0	0	563	
4	0	0	0	0	562	
5	0	0	0	0	561	
6	0	0	0	0	560	
7	0	0	0	0	559	
8	0	0	0	0	558	
9	0	0	0	0	556	
10	0	0	0	0	553	
11	0	0	0	0	550	
12	0	0	0	0	547	
13	0	0	0	0	544	
14	0	0	0	0	541	
15	0	0	0	0	539	
0	0	0	0	0	537	
1	0	0	0	0	534	
2	0	0	0	0	531	
3	0	0	0	0	527	
4	0	0	0	0	525	
5	0	0	0	0	522	
6	0	0	0	0	519	
7	0	0	0	0	516	
8	0	0	0	0	513	
9	0	0	0	0	511	
10	0	0	0	0	509	
11	0	0	0	0	507	
12	0	0	0	0	504	
13	0	0	0	0	499	
14	0	0	0	0	496	
15	0	0	0	0	491	
0	0	0	0	0	487	
1	0	0	0	0	484	
2	0	0	0	0	480	
3	0	0	0	0	476	
4	0	0	0	0	473	
5	0	0	0	0	469	
6	0	0	0	0	466	
7	0	0	0	0	463	
8	0	0	0	0	462	
9	0	0	0	0	459	
10	0	0	0	0	457	
11	0	0	0	0	455	
12	0	0	0	0	453	
13	0	0	0	0	451	
14	0	0	0	0	449	
15	0	0	0	0	448	
0	0	0	0	0	447	
1	0	0	0	0	447	
2	0	0	0	0	445	
3	0	0	0	0	444	
4	0	0	0	0	443	
5	0	0	0	0	444	
6	0	0	0	0	443	
7	0	0	0	0	442	
8	0	0	0	0	441	
9	0	0	0	0	441	
10	0	0	0	0	440	
11	0	0	0	0	440	
12	0	0	0	0	438	
13	0	0	0	0	438	
14	0	0	0	0	436	
15	0	0	0	0	435	
0	0	0	0	0	435	
1	0	0	0	0	435	
2	0	0	0	0	435	
3	0	0	0	0	434	
4	0	0	0	0	432	
5	0	0	0	0	431	
6	0	0	0	0	429	
7	0	0	0	0	428	
8	0	0	0	0	427	
9	0	0	0	0	427	
10	0	0	0	0	428	
11	0	0	0	0	430	
12	0	0	0	0	431	
13	0	0	0	0	431	
14	0	0	0	0	432	
15	0	0	0	0	432	
0	0	0	0	0	432	
1	0	0	0	0	432	
2	0	0	0	0	432	
3	0	0	0	0	432	
4	0	0	0	0	431	
5	0	0	0	0	432	
6	0	0	0	0	432	
7	0	0	0	0	432	
8	0	0	0	0	433	
9	0	0	0	0	435	
10	0	0	0	0	437	
11	0	0	0	0	438	
12	0	0	0	0	440	
13	0	0	0	0	442	
14	0	0	0	0	444	
15	0	0	0	0	444	
0	0	0	0	0	444	
1	0	0	0	0	444	
2	0	0	0	0	444	
3	0	0	0	0	445	
4	0	0	0	0	446	
5	0	0	0	0	446	
6	0	0	0	0	447	
7	0	0	0	0	449	
8	0	0	0	0	450	
9	0	0	0	0	451	
10	0	0	0	0	451	
11	0	0	0	0	452	
12	0	0	0	0	452	
13	0	0	0	0	453	
14	0	0	0	0	454	
15	0	0	0	0	455	
0	0	0	0	0	457	
1	0	0	0	0	459	
2	0	0	0	0	460	
3	0	0	0	0	462	
4	0	0	0	0	462	
5	0	0	0	0	463	
6	0	0	0	0	464	
7	0	0	0	0	464	
8	0	0	0	0	464	
9	0	0	0	0	464	
10	0	0	0	0	465	
11	0	0	0	0	465	
12	0	0	0	0	467	
13	0	0	0	0	468	
14	0	0	0	0	469	
15	0	0	0	0	469	
0	0	0	0	0	471	
1	0	0	0	0	472	
2	0	0	0	0	472	
3	0	0	0	0	472	
4	0	0	0	0	474	
5	0	0	0	0	474	
6	0	0	0	0	475	
7	0	0	0	0	476	
8	0	0	0	0	476	
9	0	0	0	0	476	
10	0	0	0	0	477	
11	0	0	0	0	480	
12	0	0	0	0	481	
13	0	0	0	0	482	
14	0	0	0	0	483	
15	0	0	0	0	486	
0	0	0	0	0	486	
1	0	0	0	0	487	
2	0	0	0	0	487	
3	0	0	0	0	487	
4	0	0	0	0	485	
5	0	0	0	0	484	
6	0	0	0	0	484	
7	0	0	0	0	484	
8	0	0	0	0	484	
9	0	0	0	0	483	
10	0	0	0	0	485	
11	0	0	0	0	486	
12	0	0	0	0	486	
13	0	0	0	0	487	
14	0	0	0	0	488	
15	0	0	0	0	488	
0	0	0	0	0	489	
1	0	0	0	0	489	
2	0	0	0	0	492	
3	0	0	0	0	494	
4	0	0	0	0	496	
5	0	0	0	0	497	
6	0	0	0	0	497	
7	0	0	0	0	499	
8	0	0	0	0	498	
9	0	0	0	0	497	
10	0	0	0	0	496	
11	0	0	0	0	495	
12	0	0	0	0	496	
13	0	0	0	0	497	
14	0	0	0	0	499	
15	0	0	0	0	501	
0	0	0	0	0	503	
1	0	0	0	0	504	
2	0	0	0	0	503	
3	0	0	0	0	503	
4	0	0	0	0	504	
5	0	0	0	0	504	
6	0	0	0	0	503	
7	0	0	0	0	503	
8	0	0	0	0	503	
9	0	0	0	0	503	
10	0	0	0	0	505	
11	0	0	0	0	504	
12	0	0	0	0	504	
13	0	0	0	0	505	
14	0	0	0	0	505	
15	0	0	0	0	505	
0	0	0	0	0	505	
1	0	0	0	0	506	
2	0	0	0	0	507	
3	0	0	0	0	508	
4	0	0	0	0	508	
5	0	0	0	0	510	
6	0	0	0	0	510	
7	0	0	0	0	509	
8	0	0	0	0	509	
9	0	0	0	0	509	
10	0	0	0	0	509	
11	0	0	0	0	510	
12	0	0	0	0	510	
13	0	0	0	0	509	
14	0	0	0	0	508	
15	0	0	0	0	507	
0	0	0	0	0	508	
1	0	0	0	0	512	
2	0	0	0	0	512	
3	0	0	0	0	513	
4	0	0	0	0	513	
5	0	0	0	0	512	
6	0	0	0	0	512	
7	0	0	0	0	512	
8	0	0	0	0	515	
9	0	0	0	0	514	
10	0	0	0	0	513	
11	0	0	0	0	512	
12	0	0	0	0	511	
13	0	0	0	0	510	
14	0	0	0	0	510	
15	0	0	0	0	510	
0	0	0	0	0	508	
1	0	0	0	0	507	
2	0	0	0	0	506	
3	0	0	0	0	506	
4	0	0	0	0	508	
5	0	0	0	0	508	
6	0	0	0	0	508	
7	0	0	0	0	510	
8	0	0	0	0	511	
9	0	0	0	0	511	
10	0	0	0	0	511	
11	0	0	0	0	510	
12	0	0	0	0	510	
13	0	0	0	0	510	
14	0	0	0	0	510	
15	0	0	0	0	509	
0	0	0	0	0	510	
1	0	0	0	0	510	
2	0	0	0	0	509	
3	0	0	0	0	508	
4	0	0	0	0	507	
5	0	0	0	0	506	
6	0	0	0	0	506	
7	0	0	0	0	506	
8	0	0	0	0	505	
9	0	0	0	0	504	
10	0	0	0	0	506	
11	0	0	0	0	506	
12	0	0	0	0	508	
13	0	0	0	0	508	
14	0	0	0	0	507	
15	0	0	0	0	505	
0	0	0	0	0	506	
1	0	0	0	0	508	
2	0	0	0	0	506	
3	0	0	0	0	505	
4	0	0	0	0	504	
5	0	0	0	0	505	
6	0	0	0	0	505	
7	0	0	0	0	507	
8	0	0	0	0	507	
9	0	0	0	0	505	
10	0	0	0	0	505	
11	0	0	0	0	507	
12	0	0	0	0	507	
13	0	0	0	0	507	
14	0	0	0	0	507	
15	0	0	0	0	506	
0	0	0	0	0	507	
1	0	0	0	0	508	
2	0	0	0	0	507	
3	0	0	0	0	509	
4	0	0	0	0	509	
5	0	0	0	0	509	
6	0	0	0	0	510	
7	0	0	0	0	509	
8	0	0	0	0	507	
9	0	0	0	0	505	
10	0	0	0	0	503	
11	0	0	0	0	503	
12	0	0	0	0	501	
13	0	0	0	0	502	
14	0	0	0	0	501	
15	0	0	0	0	500	
0	0	0	0	0	503	
1	0	0	0	0	503	
2	0	0	0	0	503	
3	0	0	0	0	504	
4	0	0	0	0	504	
5	0	0	0	0	504	
6	0	0	0	0	502	
7	0	0	0	0	504	
8	0	0	0	0	504	
9	0	0	0	0	503	
10	0	0	0	0	501	
11	0	0	0	0	503	
12	0	0	0	0	505	
13	0	0	0	0	505	
14	0	0	0	0	504	
15	0	0	0	0	501	
0	0	0	0	0	499	
1	0	0	0	0	501	
2	0	0	0	0	503	
3	0	0	0	0	504	
4	0	0	0	0	504	
5	0	0	0	0	504	
6	0	0	0	0	508	
7	0	0	0	0	510	
8	0	0	0	0	511	
9	0	0	0	0	514	
10	0	0	0	0	516	
11	0	0	0	0	517	
12	0	0	0	0	516	
13	0	0	0	0	516	
14	0	0	0	0	514	
15	0	0	0	0	514	
0	0	0	0	0	514	
1	0	0	0	0	512	
2	0	0	0	0	511	
3	0	0	0	0	510	
4	0	0	0	0	510	
5	0	0	0	0	513	
6	0	0	0	0	515	
7	0	0	0	0	514	
8	0	0	0	0	513	
9	0	0	0	0	513	
10	0	0	0	0	513	
11	0	0	0	0	512	
12	0	0	0	0	510	
13	0	0	0	0	509	
14	0	0	0	0	510	
15	0	0	0	0	509	
0	0	0	0	0	510	
1	0	0	0	0	508	
2	0	0	0	0	507	
3	0	0	0	0	505	
4	0	0	0	0	507	
5	0	0	0	0	509	
6	0	0	0	0	510	
7	0	0	0	0	509	
8	0	0	0	0	509	
9	0	0	0	0	508	
10	0	0	0	0	509	
11	0	0	0	0	510	
12	0	0	0	0	511	
13	0	0	0	0	511	
14	0	0	0	0	512	
15	0	0	0	0	514	
0	0	0	0	0	512	
1	0	0	0	0	510	
2	0	0	0	0	508	
3	0	0	0	0	507	
4	0	0	0	0	507	
5	0	0	0	0	508	
6	0	0	0	0	511	
7	0	0	0	0	512	
8	0	0	0	0	515	
9	0	0	0	0	515	
10	0	0	0	0	515	
11	0	0	0	0	515	
12	0	0	0	0	514	
13	0	0	0	0	517	
14	0	0	0	0	517	
15	0	0	0	0	518	
0	0	0	0	0	519	
1	0	0	0	0	516	
2	0	0	0	0	516	
3	0	0	0	0	515	
4	0	0	0	0	512	
5	0	0	0	0	512	
6	0	0	0	0	510	
7	0	0	0	0	512	
8	0	0	0	0	512	
9	0	0	0	0	512	
10	0	0	0	0	512	
11	0	0	0	0	513	
12	0	0	0	0	512	
13	0	0	0	0	513	
14	0	0	0	0	515	
15	0	0	0	0	518	
0	0	0	0	0	519	
1	0	0	0	0	519	
2	0	0	0	0	519	
3	0	0	0	0	519	
4	0	0	0	0	519	
5	0	0	0	0	521	
6	0	0	0	0	521	
7	0	0	0	0	521	
8	0	0	0	0	520	
9	0	0	0	0	520	
10	0	0	0	0	521	
11	0	0	0	0	523	
12	0	0	0	0	523	
13	0	0	0	0	522	
14	0	0	0	0	520	
15	0	0	0	0	520	
0	0	0	0	0	520	
1	0	0	0	0	519	
2	0	0	0	0	517	
3	0	0	0	0	519	
4	0	0	0	0	519	
5	0	0	0	0	516	
6	0	0	0	0	516	
7	0	0	0	0	518	
8	0	0	0	0	519	
9	0	0	0	0	520	
10	0	0	0	0	521	
11	0	0	0	0	520	
12	0	0	0	0	520	
13	0	0	0	0	520	
14	0	0	0	0	519	
15	0	0	0	0	521	
0	0	0	0	0	521	
1	0	0	0	0	519	
2	0	0	0	0	518	
3	0	0	0	0	521	
4	0	0	0	0	522	
5	0	0	0	0	526	
6	0	0	0	0	529	
7	0	0	0	0	530	
8	0	0	0	0	529	
9	0	0	0	0	528	
10	0	0	0	0	528	
11	0	0	0	0	530	
12	0	0	0	0	532	
13	0	0	0	0	531	
14	0	0	0	0	531	
15	0	0	0	0	531	
0	0	0	0	0	534	
1	0	0	0	0	534	
2	0	0	0	0	534	
3	0	0	0	0	534	
4	0	0	0	0	533	
5	0	0	0	0	531	
6	0	0	0	0	530	
7	0	0	0	0	530	
8	0	0	0	0	529	
9	0	0	0	0	527	
10	0	0	0	0	527	
11	0	0	0	0	529	
12	0	0	0	0	526	
13	0	0	0	0	526	
14	0	0	0	0	526	
15	0	0	0	0	525	
0	0	0	0	0	527	
1	0	0	0	0	526	
2	0	0	0	0	524	
3	0	0	0	0	522	
4	0	0	0	0	521	
5	0	0	0	0	522	
6	0	0	0	0	523	
7	0	0	0	0	526	
8	0	0	0	0	530	
9	0	0	0	0	534	
10	0	0	0	0	536	
11	0	0	0	0	538	
12	0	0	0	0	540	
13	0	0	0	0	541	
14	0	0	0	0	542	
15	0	0	0	0	543	
0	0	0	0	0	542	
1	0	0	0	0	542	
2	0	0	0	0	541	
3	0	0	0	0	542	
4	0	0	0	0	541	
5	0	0	0	0	539	
6	0	0	0	0	537	
7	0	0	0	0	536	
8	0	0	0	0	535	
9	0	0	0	0	534	
10	0	0	0	0	532	
11	0	0	0	0	533	
12	0	0	0	0	532	
13	0	0	0	0	529	
14	0	0	0	0	526	
15	0	0	0	0	524	
0	0	0	0	0	524	
1	0	0	0	0	525	
2	0	0	0	0	524	
3	0	0	0	0	525	
4	0	0	0	0	526	
5	0	0	0	0	524	
6	0	0	0	0	523	
7	0	0	0	0	522	
8	0	0	0	0	522	
9	0	0	0	0	523	
10	0	0	0	0	523	
11	0	0	0	0	522	
12	0	0	0	0	521	
13	0	0	0	0	519	
14	0	0	0	0	520	
15	0	0	0	0	520	
0	0	0	0	0	521	
1	0	0	0	0	520	
2	0	0	0	0	521	
3	0	0	0	0	522	
4	0	0	0	0	521	
5	0	0	0	0	521	
6	0	0	0	0	520	
7	0	0	0	0	520	
8	0	0	0	0	518	
9	0	0	0	0	516	
10	0	0	0	0	515	
11	0	0	0	0	517	
12	0	0	0	0	517	
13	0	0	0	0	515	
14	0	0	0	0	516	
15	0	0	0	0	518	
0	0	0	0	0	517	
1	0	0	0	0	513	
2	0	0	0	0	511	
3	0	0	0	0	509	
4	0	0	0	0	508	
5	0	0	0	0	511	
6	0	0	0	0	512	
7	0	0	0	0	514	
8	0	0	0	0	513	
9	0	0	0	0	514	
10	0	0	0	0	515	
11	0	0	0	0	514	
12	0	0	0	0	514	
13	0	0	0	0	512	
14	0	0	0	0	509	
15	0	0	0	0	508	
0	0	0	0	0	507	
1	0	0	0	0	507	
2	0	0	0	0	506	
3	0	0	0	0	505	
4	0	0	0	0	506	
5	0	0	0	0	509	
6	0	0	0	0	510	
7	0	0	0	0	509	
8	0	0	0	0	509	
9	0	0	0	0	512	
10	0	0	0	0	512	
11	0	0	0	0	512	
12	0	0	0	0	513	
13	0	0	0	0	512	
14	0	0	0	0	511	
15	0	0	0	0	512	
0	0	0	0	0	515	
1	0	0	0	0	514	
2	0	0	0	0	512	
3	0	0	0	0	514	
4	0	0	0	0	514	
5	0	0	0	0	514	
6	0	0	0	0	516	
7	0	0	0	0	516	
8	0	0	0	0	516	
9	0	0	0	0	515	
10	0	0	0	0	515	
11	0	0	0	0	515	
12	0	0	0	0	515	
13	0	0	0	0	514	
14	0	0	0	0	512	
15	0	0	0	0	510	
0	0	0	0	0	508	
1	0	0	0	0	505	
2	0	0	0	0	500	
3	0	0	0	0	499	
4	0	0	0	0	499	
5	0	0	0	0	498	
6	0	0	0	0	496	
7	0	0	0	0	496	
8	0	0	0	0	499	
9	0	0	0	0	504	
10	0	0	0	0	508	
11	0	0	0	0	515	
12	0	0	0	0	524	
13	0	0	0	0	534	
14	0	0	0	0	540	
15	0	0	0	0	546	
0	0	0	0	0	555	
1	0	0	0	0	564	
2	0	0	0	0	572	
3	0	0	0	0	585	
4	0	0	0	0	604	
5	0	0	0	0	621	
6	0	0	0	0	638	
7	0	0	0	0	654	
8	0	0	0	0	671	
9	0	0	0	0	690	
10	0	0	0	0	706	
11	0	0	0	0	723	
12	0	0	0	0	745	
13	0	0	0	0	768	
14	0	0	0	0	794	
15	0	0	0	0	819	
0	0	0	0	0	843	
1	0	0	0	0	863	
2	0	0	0	0	877	
3	0	0	0	0	884	
4	0	0	0	0	886	
5	0	0	0	0	882	
6	0	0	0	0	873	
7	0	0	0	0	862	
8	0	0	0	0	846	
9	0	0	0	0	828	
10	0	0	0	0	804	
11	0	0	0	0	776	
12	0	0	0	0	743	
13	0	0	0	0	707	
14	0	0	0	0	668	
15	0	0	0	0	627	
0	0	0	0	0	588	
1	0	0	0	0	546	
2	0	0	0	0	501	
3	0	0	0	0	457	
4	0	0	0	0	423	
5	0	0	0	0	399	
6	0	0	0	0	384	
7	0	0	0	0	378	
8	0	0	0	0	376	
9	0	0	0	0	377	
10	0	0	0	0	383	
11	0	0	0	0	388	
12	0	0	0	0	398	
13	0	0	0	0	406	
14	0	0	0	0	412	
15	0	0	0	0	419	
0	0	0	0	0	428	
1	0	0	0	0	435	
2	0	0	0	0	441	
3	0	0	0	0	447	
4	0	0	0	0	451	
5	0	0	0	0	458	
6	0	0	0	0	462	
7	0	0	0	0	465	
8	0	0	0	0	467	
9	0	0	0	0	465	
10	0	0	0	0	465	
11	0	0	0	0	465	
12	0	0	0	0	462	
13	0	0	0	0	460	
14	0	0	0	0	459	
15	0	0	0	0	459	
0	0	0	0	0	460	
1	0	0	0	0	462	
2	0	0	0	0	463	
3	0	0	0	0	465	
4	0	0	0	0	465	
5	0	0	0	0	466	
6	0	0	0	0	468	
7	0	0	0	0	467	
8	0	0	0	0	468	
9	0	0	0	0	468	
10	0	0	0	0	468	
11	0	0	0	0	465	
12	0	0	0	0	463	
13	0	0	0	0	467	
14	0	0	0	0	468	
15	0	0	0	0	468	
0	0	0	0	0	467	
1	0	0	0	0	469	
2	0	0	0	0	471	
3	0	0	0	0	471	
4	0	0	0	0	470	
5	0	0	0	0	469	
6	0	0	0	0	471	
7	0	0	0	0	472	
8	0	0	0	0	472	
9	0	0	0	0	474	
10	0	0	0	0	475	
11	0	0	0	0	476	
12	0	0	0	0	474	
13	0	0	0	0	474	
14	0	0	0	0	476	
15	0	0	0	0	476	
0	0	0	0	0	477	
1	0	0	0	0	476	
2	0	0	0	0	476	
3	0	0	0	0	478	
4	0	0	0	0	479	
5	0	0	0	0	478	
6	0	0	0	0	477	
7	0	0	0	0	480	
8	0	0	0	0	481	
9	0	0	0	0	481	
10	0	0	0	0	481	
11	0	0	0	0	482	
12	0	0	0	0	481	
13	0	0	0	0	482	
14	0	0	0	0	484	
15	0	0	0	0	484	
0	0	0	0	0	485	
1	0	0	0	0	486	
2	0	0	0	0	487	
3	0	0	0	0	488	
4	0	0	0	0	490	
5	0	0	0	0	492	
6	0	0	0	0	492	
7	0	0	0	0	492	
8	0	0	0	0	491	
9	0	0	0	0	491	
10	0	0	0	0	491	
11	0	0	0	0	489	
12	0	0	0	0	490	
13	0	0	0	0	492	
14	0	0	0	0	491	
15	0	0	0	0	490	
0	0	0	0	0	490	
1	0	0	0	0	491	
2	0	0	0	0	493	
3	0	0	0	0	494	
4	0	0	0	0	494	
5	0	0	0	0	494	
6	0	0	0	0	495	
7	0	0	0	0	496	
8	0	0	0	0	496	
9	0	0	0	0	498	
10	0	0	0	0	500	
11	0	0	0	0	503	
12	0	0	0	0	505	
13	0	0	0	0	506	
14	0	0	0	0	507	
15	0	0	0	0	505	
0	0	0	0	0	505	
1	0	0	0	0	506	
2	0	0	0	0	508	
3	0	0	0	0	509	
4	0	0	0	0	509	
5	0	0	0	0	509	
6	0	0	0	0	508	
7	0	0	0	0	510	
8	0	0	0	0	512	
9	0	0	0	0	510	
10	0	0	0	0	509	
11	0	0	0	0	508	
12	0	0	0	0	510	
13	0	0	0	0	509	
14	0	0	0	0	508	
15	0	0	0	0	509	
0	0	0	0	0	507	
1	0	0	0	0	508	
2	0	0	0	0	510	
3	0	0	0	0	510	
4	0	0	0	0	511	
5	0	0	0	0	511	
6	0	0	0	0	509	
7	0	0	0	0	510	
8	0	0	0	0	514	
9	0	0	0	0	517	
10	0	0	0	0	519	
11	0	0	0	0	520	
12	0	0	0	0	520	
13	0	0	0	0	521	
14	0	0	0	0	524	
15	0	0	0	0	526	
0	0	0	0	0	526	
1	0	0	0	0	527	
2	0	0	0	0	527	
3	0	0	0	0	527	
4	0	0	0	0	528	
5	0	0	0	0	530	
6	0	0	0	0	531	
7	0	0	0	0	530	
8	0	0	0	0	532	
9	0	0	0	0	536	
10	0	0	0	0	539	
11	0	0	0	0	539	
12	0	0	0	0	539	
13	0	0	0	0	540	
14	0	0	0	0	540	
15	0	0	0	0	542	
0	0	0	0	0	542	
1	0	0	0	0	541	
2	0	0	0	0	540	
3	0	0	0	0	540	
4	0	0	0	0	539	
5	0	0	0	0	540	
6	0	0	0	0	542	
7	0	0	0	0	546	
8	0	0	0	0	551	
9	0	0	0	0	554	
10	0	0	0	0	556	
11	0	0	0	0	557	
12	0	0	0	0	554	
13	0	0	0	0	552	
14	0	0	0	0	553	
15	0	0	0	0	553	
0	0	0	0	0	550	
1	0	0	0	0	549	
2	0	0	0	0	549	
3	0	0	0	0	550	
4	0	0	0	0	550	
5	0	0	0	0	550	
6	0	0	0	0	550	
7	0	0	0	0	552	
8	0	0	0	0	554	
9	0	0	0	0	559	
10	0	0	0	0	561	
11	0	0	0	0	563	
12	0	0	0	0	564	
13	0	0	0	0	564	
14	0	0	0	0	562	
15	0	0	0	0	563	
0	0	0	0	0	562	
1	0	0	0	0	563	
2	0	0	0	0	567	
3	0	0	0	0	570	
4	0	0	0	0	571	
5	0	0	0	0	574	
6	0	0	0	0	575	
7	0	0	0	0	575	
8	0	0	0	0	575	
9	0	0	0	0	575	
10	0	0	0	0	578	
11	0	0	0	0	581	
12	0	0	0	0	581	
13	0	0	0	0	580	
14	0	0	0	0	580	
15	0	0	0	0	580	
0	0	0	0	0	579	
1	0	0	0	0	580	
2	0	0	0	0	580	
3	0	0	0	0	580	
4	0	0	0	0	579	
5	0	0	0	0	578	
6	0	0	0	0	577	
7	0	0	0	0	576	
8	0	0	0	0	576	
9	0	0	0	0	576	
10	0	0	0	0	576	
11	0	0	0	0	576	
12	0	0	0	0	578	
13	0	0	0	0	580	
14	0	0	0	0	578	
15	0	0	0	0	576	
0	0	0	0	0	576	
1	0	0	0	0	577	
2	0	0	0	0	580	
3	0	0	0	0	582	
4	0	0	0	0	581	
5	0	0	0	0	581	
6	0	0	0	0	581	
7	0	0	0	0	579	
8	0	0	0	0	578	
9	0	0	0	0	576	
10	0	0	0	0	575	
11	0	0	0	0	576	
12	0	0	0	0	574	
13	0	0	0	0	571	
14	0	0	0	0	568	
15	0	0	0	0	568	
0	0	0	0	0	567	
1	0	0	0	0	564	
2	0	0	0	0	562	
3	0	0	0	0	560	
4	0	0	0	0	559	
5	0	0	0	0	558	
6	0	0	0	0	555	
7	0	0	0	0	552	
8	0	0	0	0	551	
9	0	0	0	0	553	
10	0	0	0	0	551	
11	0	0	0	0	547	
12	0	0	0	0	543	
13	0	0	0	0	541	
14	0	0	0	0	539	
15	0	0	0	0	539	
0	0	0	0	0	537	
1	0	0	0	0	533	
2	0	0	0	0	529	
3	0	0	0	0	527	
4	0	0	0	0	525	
5	0	0	0	0	520	
6	0	0	0	0	515	
7	0	0	0	0	511	
8	0	0	0	0	507	
9	0	0	0	0	504	
10	0	0	0	0	501	
11	0	0	0	0	499	
12	0	0	0	0	498	
13	0	0	0	0	496	
14	0	0	0	0	494	
15	0	0	0	0	494	
0	0	0	0	0	493	
1	0	0	0	0	488	
2	0	0	0	0	481	
3	0	0	0	0	479	
4	0	0	0	0	477	
5	0	0	0	0	473	
6	0	0	0	0	470	
7	0	0	0	0	469	
8	0	0	0	0	468	
9	0	0	0	0	467	
10	0	0	0	0	464	
11	0	0	0	0	462	
12	0	0	0	0	461	
13	0	0	0	0	458	
14	0	0	0	0	459	
15	0	0	0	0	456	
0	0	0	0	0	457	
1	0	0	0	0	456	
2	0	0	0	0	452	
3	0	0	0	0	447	
4	0	0	0	0	444	
5	0	0	0	0	444	
6	0	0	0	0	444	
7	0	0	0	0	444	
8	0	0	0	0	445	
9	0	0	0	0	445	
10	0	0	0	0	443	
11	0	0	0	0	443	
12	0	0	0	0	444	
13	0	0	0	0	445	
14	0	0	0	0	444	
15	0	0	0	0	442	
0	0	0	0	0	440	
1	0	0	0	0	443	
2	0	0	0	0	442	
3	0	0	0	0	440	
4	0	0	0	0	435	
5	0	0	0	0	434	
6	0	0	0	0	435	
7	0	0	0	0	433	
8	0	0	0	0	434	
9	0	0	0	0	434	
10	0	0	0	0	435	
11	0	0	0	0	434	
12	0	0	0	0	435	
13	0	0	0	0	435	
14	0	0	0	0	438	
15	0	0	0	0	436	
0	0	0	0	0	435	
1	0	0	0	0	435	
2	0	0	0	0	436	
3	0	0	0	0	435	
4	0	0	0	0	436	
5	0	0	0	0	439	
6	0	0	0	0	441	
7	0	0	0	0	440	
8	0	0	0	0	443	
9	0	0	0	0	446	
10	0	0	0	0	448	
11	0	0	0	0	448	
12	0	0	0	0	445	
13	0	0	0	0	447	
14	0	0	0	0	451	
15	0	0	0	0	454	
0	0	0	0	0	455	
1	0	0	0	0	454	
2	0	0	0	0	451	
3	0	0	0	0	449	
4	0	0	0	0	451	
5	0	0	0	0	449	
6	0	0	0	0	449	
7	0	0	0	0	447	
8	0	0	0	0	446	
9	0	0	0	0	446	
10	0	0	0	0	447	
11	0	0	0	0	447	
12	0	0	0	0	447	
13	0	0	0	0	447	
14	0	0	0	0	446	
15	0	0	0	0	448	
0	0	0	0	0	451	
1	0	0	0	0	454	
2	0	0	0	0	456	
3	0	0	0	0	456	
4	0	0	0	0	458	
5	0	0	0	0	459	
6	0	0	0	0	459	
7	0	0	0	0	459	
8	0	0	0	0	460	
9	0	0	0	0	463	
10	0	0	0	0	465	
11	0	0	0	0	465	
12	0	0	0	0	465	
13	0	0	0	0	466	
14	0	0	0	0	467	
15	0	0	0	0	468	
0	0	0	0	0	471	
1	0	0	0	0	472	
2	0	0	0	0	474	
3	0	0	0	0	475	
4	0	0	0	0	475	
5	0	0	0	0	475	
6	0	0	0	0	474	
7	0	0	0	0	475	
8	0	0	0	0	474	
9	0	0	0	0	473	
10	0	0	0	0	475	
11	0	0	0	0	472	
12	0	0	0	0	469	
13	0	0	0	0	473	
14	0	0	0	0	477	
15	0	0	0	0	481	
0	0	0	0	0	483	
1	0	0	0	0	483	
2	0	0	0	0	486	
3	0	0	0	0	487	
4	0	0	0	0	489	
5	0	0	0	0	489	
6	0	0	0	0	493	
7	0	0	0	0	496	
8	0	0	0	0	495	
9	0	0	0	0	495	
10	0	0	0	0	493	
11	0	0	0	0	491	
12	0	0	0	0	489	
13	0	0	0	0	487	
14	0	0	0	0	485	
15	0	0	0	0	486	
0	0	0	0	0	487	
1	0	0	0	0	492	
2	0	0	0	0	494	
3	0	0	0	0	494	
4	0	0	0	0	497	
5	0	0	0	0	497	
6	0	0	0	0	499	
7	0	0	0	0	499	
8	0	0	0	0	498	
9	0	0	0	0	497	
10	0	0	0	0	495	
11	0	0	0	0	495	
12	0	0	0	0	496	
13	0	0	0	0	498	
14	0	0	0	0	498	
15	0	0	0	0	499	
0	0	0	0	0	500	
1	0	0	0	0	501	
2	0	0	0	0	502	
3	0	0	0	0	504	
4	0	0	0	0	505	
5	0	0	0	0	505	
6	0	0	0	0	505	
7	0	0	0	0	508	
8	0	0	0	0	510	
9	0	0	0	0	509	
10	0	0	0	0	504	
11	0	0	0	0	500	
12	0	0	0	0	500	
13	0	0	0	0	502	
14	0	0	0	0	504	
15	0	0	0	0	504	
0	0	0	0	0	505	
1	0	0	0	0	507	
2	0	0	0	0	507	
3	0	0	0	0	505	
4	0	0	0	0	508	
5	0	0	0	0	510	
6	0	0	0	0	511	
7	0	0	0	0	510	
8	0	0	0	0	508	
9	0	0	0	0	507	
10	0	0	0	0	508	
11	0	0	0	0	511	
12	0	0	0	0	514	
13	0	0	0	0	516	
14	0	0	0	0	516	
15	0	0	0	0	517	
0	0	0	0	0	516	
1	0	0	0	0	518	
2	0	0	0	0	519	
3	0	0	0	0	519	
4	0	0	0	0	520	
5	0	0	0	0	518	
6	0	0	0	0	517	
7	0	0	0	0	518	
8	0	0	0	0	515	
9	0	0	0	0	514	
10	0	0	0	0	513	
11	0	0	0	0	512	
12	0	0	0	0	513	
13	0	0	0	0	511	
14	0	0	0	0	511	
15	0	0	0	0	508	
0	0	0	0	0	507	
1	0	0	0	0	507	
2	0	0	0	0	508	
3	0	0	0	0	509	
4	0	0	0	0	512	
5	0	0	0	0	513	
6	0	0	0	0	511	
7	0	0	0	0	512	
8	0	0	0	0	512	
9	0	0	0	0	513	
10	0	0	0	0	512	
11	0	0	0	0	512	
12	0	0	0	0	510	
13	0	0	0	0	509	
14	0	0	0	0	510	
15	0	0	0	0	511	
0	0	0	0	0	511	
1	0	0	0	0	511	
2	0	0	0	0	513	
3	0	0	0	0	512	
4	0	0	0	0	511	
5	0	0	0	0	512	
6	0	0	0	0	513	
7	0	0	0	0	517	
8	0	0	0	0	518	
9	0	0	0	0	518	
10	0	0	0	0	515	
11	0	0	0	0	513	
12	0	0	0	0	512	
13	0	0	0	0	513	
14	0	0	0	0	514	
15	0	0	0	0	513	
0	0	0	0	0	511	
1	0	0	0	0	509	
2	0	0	0	0	511	
3	0	0	0	0	512	
4	0	0	0	0	511	
5	0	0	0	0	508	
6	0	0	0	0	506	
7	0	0	0	0	505	
8	0	0	0	0	502	
9	0	0	0	0	500	
10	0	0	0	0	499	
11	0	0	0	0	500	
12	0	0	0	0	501	
13	0	0	0	0	502	
14	0	0	0	0	502	
15	0	0	0	0	500	
0	0	0	0	0	499	
1	0	0	0	0	501	
2	0	0	0	0	502	
3	0	0	0	0	500	
4	0	0	0	0	502	
5	0	0	0	0	503	
6	0	0	0	0	499	
7	0	0	0	0	500	
8	0	0	0	0	502	
9	0	0	0	0	504	
10	0	0	0	0	504	
11	0	0	0	0	502	
12	0	0	0	0	502	
13	0	0	0	0	503	
14	0	0	0	0	505	
15	0	0	0	0	505	
0	0	0	0	0	508	
1	0	0	0	0	508	
2	0	0	0	0	507	
3	0	0	0	0	504	
4	0	0	0	0	503	
5	0	0	0	0	503	
6	0	0	0	0	505	
7	0	0	0	0	508	
8	0	0	0	0	510	
9	0	0	0	0	511	
10	0	0	0	0	510	
11	0	0	0	0	510	
12	0	0	0	0	512	
13	0	0	0	0	514	
14	0	0	0	0	514	
15	0	0	0	0	514	
0	0	0	0	0	511	
1	0	0	0	0	511	
2	0	0	0	0	508	
3	0	0	0	0	507	
4	0	0	0	0	507	
5	0	0	0	0	511	
6	0	0	0	0	512	
7	0	0	0	0	510	
8	0	0	0	0	509	
9	0	0	0	0	506	
10	0	0	0	0	503	
11	0	0	0	0	505	
12	0	0	0	0	506	
13	0	0	0	0	507	
14	0	0	0	0	505	
15	0	0	0	0	505	
0	0	0	0	0	504	
1	0	0	0	0	505	
2	0	0	0	0	507	
3	0	0	0	0	508	
4	0	0	0	0	510	
5	0	0	0	0	513	
6	0	0	0	0	514	
7	0	0	0	0	515	
8	0	0	0	0	517	
9	0	0	0	0	521	
10	0	0	0	0	526	
11	0	0	0	0	529	
12	0	0	0	0	531	
13	0	0	0	0	527	
14	0	0	0	0	527	
15	0	0	0	0	530	
0	0	0	0	0	529	
1	0	0	0	0	531	
2	0	0	0	0	533	
3	0	0	0	0	535	
4	0	0	0	0	535	
5	0	0	0	0	534	
6	0	0	0	0	533	
7	0	0	0	0	532	
8	0	0	0	0	534	
9	0	0	0	0	534	
10	0	0	0	0	535	
11	0	0	0	0	535	
12	0	0	0	0	534	
13	0	0	0	0	530	
14	0	0	0	0	526	
15	0	0	0	0	523	
0	0	0	0	0	524	
1	0	0	0	0	524	
2	0	0	0	0	524	
3	0	0	0	0	523	
4	0	0	0	0	519	
5	0	0	0	0	519	
6	0	0	0	0	521	
7	0	0	0	0	523	
8	0	0	0	0	527	
9	0	0	0	0	528	
10	0	0	0	0	527	
11	0	0	0	0	531	
12	0	0	0	0	533	
13	0	0	0	0	536	
14	0	0	0	0	536	
15	0	0	0	0	540	
0	0	0	0	0	541	
1	0	0	0	0	539	
2	0	0	0	0	536	
3	0	0	0	0	536	
4	0	0	0	0	536	
5	0	0	0	0	536	
6	0	0	0	0	536	
7	0	0	0	0	535	
8	0	0	0	0	534	
9	0	0	0	0	532	
10	0	0	0	0	531	
11	0	0	0	0	531	
12	0	0	0	0	532	
13	0	0	0	0	531	
14	0	0	0	0	528	
15	0	0	0	0	525	
0	0	0	0	0	521	
1	0	0	0	0	521	
2	0	0	0	0	522	
3	0	0	0	0	521	
4	0	0	0	0	522	
5	0	0	0	0	522	
6	0	0	0	0	520	
7	0	0	0	0	521	
8	0	0	0	0	521	
9	0	0	0	0	521	
10	0	0	0	0	522	
11	0	0	0	0	522	
12	0	0	0	0	525	
13	0	0	0	0	528	
14	0	0	0	0	529	
15	0	0	0	0	529	
0	0	0	0	0	528	
1	0	0	0	0	528	
2	0	0	0	0	527	
3	0	0	0	0	525	
4	0	0	0	0	523	
5	0	0	0	0	520	
6	0	0	0	0	518	
7	0	0	0	0	516	
8	0	0	0	0	513	
9	0	0	0	0	513	
10	0	0	0	0	510	
11	0	0	0	0	507	
12	0	0	0	0	508	
13	0	0	0	0	510	
14	0	0	0	0	510	
15	0	0	0	0	510	
0	0	0	0	0	509	
1	0	0	0	0	509	
2	0	0	0	0	508	
3	0	0	0	0	507	
4	0	0	0	0	506	
5	0	0	0	0	505	
6	0	0	0	0	507	
7	0	0	0	0	507	
8	0	0	0	0	508	
9	0	0	0	0	511	
10	0	0	0	0	511	
11	0	0	0	0	511	
12	0	0	0	0	512	
13	0	0	0	0	514	
14	0	0	0	0	512	
15	0	0	0	0	511	
0	0	0	0	0	512	
1	0	0	0	0	512	
2	0	0	0	0	511	
3	0	0	0	0	508	
4	0	0	0	0	508	
5	0	0	0	0	508	
6	0	0	0	0	510	
7	0	0	0	0	510	
8	0	0	0	0	508	
9	0	0	0	0	511	
10	0	0	0	0	512	
11	0	0	0	0	514	
12	0	0	0	0	515	
13	0	0	0	0	514	
14	0	0	0	0	516	
15	0	0	0	0	520	
0	0	0	0	0	523	
1	0	0	0	0	525	
2	0	0	0	0	526	
3	0	0	0	0	526	
4	0	0	0	0	526	
5	0	0	0	0	525	
6	0	0	0	0	523	
7	0	0	0	0	519	
8	0	0	0	0	517	
9	0	0	0	0	514	
10	0	0	0	0	512	
11	0	0	0	0	512	
12	0	0	0	0	509	
13	0	0	0	0	507	
14	0	0	0	0	507	
15	0	0	0	0	507	
0	0	0	0	0	507	
1	0	0	0	0	509	
2	0	0	0	0	506	
3	0	0	0	0	504	
4	0	0	0	0	502	
5	0	0	0	0	501	
6	0	0	0	0	500	
7	0	0	0	0	504	
8	0	0	0	0	510	
9	0	0	0	0	516	
10	0	0	0	0	522	
11	0	0	0	0	530	
12	0	0	0	0	538	
13	0	0	0	0	540	
14	0	0	0	0	543	
15	0	0	0	0	551	
0	0	0	0	0	559	
1	0	0	0	0	563	
2	0	0	0	0	572	
3	0	0	0	0	578	
4	0	0	0	0	583	
5	0	0	0	0	592	
6	0	0	0	0	604	
7	0	0	0	0	620	
8	0	0	0	0	636	
9	0	0	0	0	654	
10	0	0	0	0	672	
11	0	0	0	0	693	
12	0	0	0	0	712	
13	0	0	0	0	732	
14	0	0	0	0	748	
15	0	0	0	0	764	
0	0	0	0	0	781	
1	0	0	0	0	797	
2	0	0	0	0	811	
3	0	0	0	0	823	
4	0	0	0	0	834	
5	0	0	0	0	838	
6	0	0	0	0	838	
7	0	0	0	0	833	
8	0	0	0	0	824	
9	0	0	0	0	810	
10	0	0	0	0	788	
11	0	0	0	0	765	
12	0	0	0	0	735	
13	0	0	0	0	705	
14	0	0	0	0	676	
15	0	0	0	0	643	
0	0	0	0	0	610	
1	0	0	0	0	571	
2	0	0	0	0	531	
3	0	0	0	0	495	
4	0	0	0	0	464	
5	0	0	0	0	440	
6	0	0	0	0	422	
7	0	0	0	0	410	
8	0	0	0	0	403	
9	0	0	0	0	394	
10	0	0	0	0	393	
11	0	0	0	0	395	
12	0	0	0	0	400	
13	0	0	0	0	408	
14	0	0	0	0	418	
15	0	0	0	0	428	
0	0	0	0	0	436	
1	0	0	0	0	444	
2	0	0	0	0	450	
3	0	0	0	0	453	
4	0	0	0	0	453	
5	0	0	0	0	456	
6	0	0	0	0	460	
7	0	0	0	0	464	
8	0	0	0	0	466	
9	0	0	0	0	467	
10	0	0	0	0	466	
11	0	0	0	0	467	
12	0	0	0	0	471	
13	0	0	0	0	471	
14	0	0	0	0	473	
15	0	0	0	0	476	
0	0	0	0	0	479	
1	0	0	0	0	480	
2	0	0	0	0	481	
3	0	0	0	0	480	
4	0	0	0	0	478	
5	0	0	0	0	478	
6	0	0	0	0	477	
7	0	0	0	0	475	
8	0	0	0	0	474	
9	0	0	0	0	473	
10	0	0	0	0	473	
11	0	0	0	0	474	
12	0	0	0	0	475	
13	0	0	0	0	477	
14	0	0	0	0	478	
15	0	0	0	0	480	
0	0	0	0	0	481	
1	0	0	0	0	480	
2	0	0	0	0	478	
3	0	0	0	0	479	
4	0	0	0	0	482	
5	0	0	0	0	488	
6	0	0	0	0	490	
7	0	0	0	0	492	
8	0	0	0	0	495	
9	0	0	0	0	496	
10	0	0	0	0	492	
11	0	0	0	0	490	
12	0	0	0	0	491	
13	0	0	0	0	487	
14	0	0	0	0	486	
15	0	0	0	0	486	
0	0	0	0	0	485	
1	0	0	0	0	484	
2	0	0	0	0	483	
3	0	0	0	0	483	
4	0	0	0	0	483	
5	0	0	0	0	484	
6	0	0	0	0	484	
7	0	0	0	0	485	
8	0	0	0	0	487	
9	0	0	0	0	487	
10	0	0	0	0	487	
11	0	0	0	0	488	
12	0	0	0	0	487	
13	0	0	0	0	487	
14	0	0	0	0	488	
15	0	0	0	0	488	
0	0	0	0	0	489	
1	0	0	0	0	492	
2	0	0	0	0	494	
3	0	0	0	0	499	
4	0	0	0	0	503	
5	0	0	0	0	504	
6	0	0	0	0	507	
7	0	0	0	0	506	
8	0	0	0	0	503	
9	0	0	0	0	499	
10	0	0	0	0	495	
11	0	0	0	0	491	
12	0	0	0	0	489	
13	0	0	0	0	490	
14	0	0	0	0	492	
15	0	0	0	0	493	
0	0	0	0	0	493	
1	0	0	0	0	497	
2	0	0	0	0	499	
3	0	0	0	0	502	
4	0	0	0	0	501	
5	0	0	0	0	500	
6	0	0	0	0	501	
7	0	0	0	0	502	
8	0	0	0	0	502	
9	0	0	0	0	503	
10	0	0	0	0	502	
11	0	0	0	0	503	
12	0	0	0	0	502	
13	0	0	0	0	501	
14	0	0	0	0	500	
15	0	0	0	0	501	
0	0	0	0	0	505	
1	0	0	0	0	507	
2	0	0	0	0	506	
3	0	0	0	0	507	
4	0	0	0	0	511	
5	0	0	0	0	513	
6	0	0	0	0	516	
7	0	0	0	0	517	
8	0	0	0	0	516	
9	0	0	0	0	516	
10	0	0	0	0	516	
11	0	0	0	0	518	
12	0	0	0	0	518	
13	0	0	0	0	516	
14	0	0	0	0	514	
15	0	0	0	0	514	
0	0	0	0	0	515	
1	0	0	0	0	517	
2	0	0	0	0	517	
3	0	0	0	0	518	
4	0	0	0	0	518	
5	0	0	0	0	520	
6	0	0	0	0	522	
7	0	0	0	0	523	
8	0	0	0	0	525	
9	0	0	0	0	525	
10	0	0	0	0	527	
11	0	0	0	0	526	
12	0	0	0	0	523	
13	0	0	0	0	522	
14	0	0	0	0	525	
15	0	0	0	0	528	
0	0	0	0	0	528	
1	0	0	0	0	529	
2	0	0	0	0	533	
3	0	0	0	0	536	
4	0	0	0	0	536	
5	0	0	0	0	536	
6	0	0	0	0	539	
7	0	0	0	0	542	
8	0	0	0	0	544	
9	0	0	0	0	544	
10	0	0	0	0	540	
11	0	0	0	0	539	
12	0	0	0	0	538	
13	0	0	0	0	536	
14	0	0	0	0	532	
15	0	0	0	0	528	
0	0	0	0	0	526	
1	0	0	0	0	524	
2	0	0	0	0	521	
3	0	0	0	0	523	
4	0	0	0	0	526	
5	0	0	0	0	531	
6	0	0	0	0	534	
7	0	0	0	0	535	
8	0	0	0	0	533	
9	0	0	0	0	532	
10	0	0	0	0	531	
11	0	0	0	0	532	
12	0	0	0	0	534	
13	0	0	0	0	537	
14	0	0	0	0	537	
15	0	0	0	0	539	
0	0	0	0	0	539	
1	0	0	0	0	539	
2	0	0	0	0	543	
3	0	0	0	0	546	
4	0	0	0	0	546	
5	0	0	0	0	547	
6	0	0	0	0	547	
7	0	0	0	0	547	
8	0	0	0	0	546	
9	0	0	0	0	547	
10	0	0	0	0	547	
11	0	0	0	0	548	
12	0	0	0	0	549	
13	0	0	0	0	551	
14	0	0	0	0	553	
15	0	0	0	0	555	
0	0	0	0	0	559	
1	0	0	0	0	562	
2	0	0	0	0	561	
3	0	0	0	0	562	
4	0	0	0	0	561	
5	0	0	0	0	565	
6	0	0	0	0	568	
7	0	0	0	0	571	
8	0	0	0	0	571	
9	0	0	0	0	572	
10	0	0	0	0	576	
11	0	0	0	0	577	
12	0	0	0	0	575	
13	0	0	0	0	572	
14	0	0	0	0	571	
15	0	0	0	0	566	
0	0	0	0	0	563	
1	0	0	0	0	563	
2	0	0	0	0	563	
3	0	0	0	0	563	
4	0	0	0	0	563	
5	0	0	0	0	564	
6	0	0	0	0	564	
7	0	0	0	0	567	
8	0	0	0	0	570	
9	0	0	0	0	572	
10	0	0	0	0	573	
11	0	0	0	0	574	
12	0	0	0	0	572	
13	0	0	0	0	570	
14	0	0	0	0	569	
15	0	0	0	0	569	
0	0	0	0	0	569	
1	0	0	0	0	570	
2	0	0	0	0	569	
3	0	0	0	0	567	
4	0	0	0	0	563	
5	0	0	0	0	564	
6	0	0	0	0	566	
7	0	0	0	0	563	
8	0	0	0	0	564	
9	0	0	0	0	566	
10	0	0	0	0	565	
11	0	0	0	0	566	
12	0	0	0	0	563	
13	0	0	0	0	562	
14	0	0	0	0	559	
15	0	0	0	0	556	
0	0	0	0	0	550	
1	0	0	0	0	549	
2	0	0	0	0	547	
3	0	0	0	0	545	
4	0	0	0	0	540	
5	0	0	0	0	540	
6	0	0	0	0	539	
7	0	0	0	0	536	
8	0	0	0	0	534	
9	0	0	0	0	532	
10	0	0	0	0	530	
11	0	0	0	0	527	
12	0	0	0	0	523	
13	0	0	0	0	523	
14	0	0	0	0	521	
15	0	0	0	0	519	
0	0	0	0	0	513	
1	0	0	0	0	510	
2	0	0	0	0	508	
3	0	0	0	0	508	
4	0	0	0	0	508	
5	0	0	0	0	504	
6	0	0	0	0	502	
7	0	0	0	0	499	
8	0	0	0	0	495	
9	0	0	0	0	492	
10	0	0	0	0	492	
11	0	0	0	0	490	
12	0	0	0	0	488	
13	0	0	0	0	484	
14	0	0	0	0	484	
15	0	0	0	0	483	
0	0	0	0	0	482	
1	0	0	0	0	480	
2	0	0	0	0	476	
3	0	0	0	0	473	
4	0	0	0	0	471	
5	0	0	0	0	467	
6	0	0	0	0	464	
7	0	0	0	0	461	
8	0	0	0	0	459	
9	0	0	0	0	457	
10	0	0	0	0	455	
11	0	0	0	0	453	
12	0	0	0	0	450	
13	0	0	0	0	449	
14	0	0	0	0	449	
15	0	0	0	0	447	
0	0	0	0	0	449	
1	0	0	0	0	447	
2	0	0	0	0	445	
3	0	0	0	0	444	
4	0	0	0	0	443	
5	0	0	0	0	443	
6	0	0	0	0	444	
7	0	0	0	0	444	
8	0	0	0	0	443	
9	0	0	0	0	442	
10	0	0	0	0	443	
11	0	0	0	0	445	
12	0	0	0	0	445	
13	0	0	0	0	442	
14	0	0	0	0	444	
15	0	0	0	0	444	
0	0	0	0	0	441	
1	0	0	0	0	441	
2	0	0	0	0	440	
3	0	0	0	0	439	
4	0	0	0	0	436	
5	0	0	0	0	436	
6	0	0	0	0	435	
7	0	0	0	0	435	
8	0	0	0	0	436	
9	0	0	0	0	436	
10	0	0	0	0	439	
11	0	0	0	0	443	
12	0	0	0	0	444	
13	0	0	0	0	443	
14	0	0	0	0	439	
15	0	0	0	0	436	
0	0	0	0	0	436	
1	0	0	0	0	437	
2	0	0	0	0	440	
3	0	0	0	0	443	
4	0	0	0	0	443	
5	0	0	0	0	444	
6	0	0	0	0	443	
7	0	0	0	0	443	
8	0	0	0	0	444	
9	0	0	0	0	444	
10	0	0	0	0	445	
11	0	0	0	0	447	
12	0	0	0	0	448	
13	0	0	0	0	448	
14	0	0	0	0	449	
15	0	0	0	0	450	
0	0	0	0	0	451	
1	0	0	0	0	454	
2	0	0	0	0	453	
3	0	0	0	0	451	
4	0	0	0	0	451	
5	0	0	0	0	450	
6	0	0	0	0	451	
7	0	0	0	0	451	
8	0	0	0	0	453	
9	0	0	0	0	454	
10	0	0	0	0	454	
11	0	0	0	0	458	
12	0	0	0	0	460	
13	0	0	0	0	462	
14	0	0	0	0	464	
15	0	0	0	0	467	
0	0	0	0	0	468	
1	0	0	0	0	467	
2	0	0	0	0	465	
3	0	0	0	0	468	
4	0	0	0	0	468	
5	0	0	0	0	467	
6	0	0	0	0	468	
7	0	0	0	0	470	
8	0	0	0	0	471	
9	0	0	0	0	473	
10	0	0	0	0	473	
11	0	0	0	0	475	
12	0	0	0	0	474	
13	0	0	0	0	474	
14	0	0	0	0	477	
15	0	0	0	0	478	
0	0	0	0	0	478	
1	0	0	0	0	478	
2	0	0	0	0	479	
3	0	0	0	0	480	
4	0	0	0	0	480	
5	0	0	0	0	481	
6	0	0	0	0	483	
7	0	0	0	0	485	
8	0	0	0	0	485	
9	0	0	0	0	484	
10	0	0	0	0	482	
11	0	0	0	0	483	
12	0	0	0	0	484	
13	0	0	0	0	483	
14	0	0	0	0	484	
15	0	0	0	0	486	
0	0	0	0	0	487	
1	0	0	0	0	488	
2	0	0	0	0	488	
3	0	0	0	0	490	
4	0	0	0	0	492	
5	0	0	0	0	492	
6	0	0	0	0	492	
7	0	0	0	0	493	
8	0	0	0	0	490	
9	0	0	0	0	488	
10	0	0	0	0	486	
11	0	0	0	0	486	
12	0	0	0	0	487	
13	0	0	0	0	490	
14	0	0	0	0	490	
15	0	0	0	0	490	
0	0	0	0	0	491	
1	0	0	0	0	491	
2	0	0	0	0	494	
3	0	0	0	0	495	
4	0	0	0	0	494	
5	0	0	0	0	492	
6	0	0	0	0	492	
7	0	0	0	0	493	
8	0	0	0	0	493	
9	0	0	0	0	492	
10	0	0	0	0	491	
11	0	0	0	0	490	
12	0	0	0	0	491	
13	0	0	0	0	492	
14	0	0	0	0	492	
15	0	0	0	0	494	
0	0	0	0	0	494	
1	0	0	0	0	494	
2	0	0	0	0	496	
3	0	0	0	0	496	
4	0	0	0	0	496	
5	0	0	0	0	496	
6	0	0	0	0	496	
7	0	0	0	0	496	
8	0	0	0	0	498	
9	0	0	0	0	498	
10	0	0	0	0	496	
11	0	0	0	0	494	
12	0	0	0	0	492	
13	0	0	0	0	492	
14	0	0	0	0	492	
15	0	0	0	0	492	
0	0	0	0	0	494	
1	0	0	0	0	495	
2	0	0	0	0	497	
3	0	0	0	0	498	
4	0	0	0	0	499	
5	0	0	0	0	502	
6	0	0	0	0	503	
7	0	0	0	0	501	
8	0	0	0	0	502	
9	0	0	0	0	503	
10	0	0	0	0	501	
11	0	0	0	0	503	
12	0	0	0	0	503	
13	0	0	0	0	505	
14	0	0	0	0	504	
15	0	0	0	0	504	
0	0	0	0	0	506	
1	0	0	0	0	507	
2	0	0	0	0	508	
3	0	0	0	0	506	
4	0	0	0	0	504	
5	0	0	0	0	505	
6	0	0	0	0	504	
7	0	0	0	0	502	
8	0	0	0	0	500	
9	0	0	0	0	499	
10	0	0	0	0	502	
11	0	0	0	0	504	
12	0	0	0	0	504	
13	0	0	0	0	503	
14	0	0	0	0	502	
15	0	0	0	0	503	
0	0	0	0	0	504	
1	0	0	0	0	505	
2	0	0	0	0	505	
3	0	0	0	0	506	
4	0	0	0	0	507	
5	0	0	0	0	509	
6	0	0	0	0	510	
7	0	0	0	0	510	
8	0	0	0	0	509	
9	0	0	0	0	509	
10	0	0	0	0	508	
11	0	0	0	0	507	
12	0	0	0	0	507	
13	0	0	0	0	508	
14	0	0	0	0	509	
15	0	0	0	0	508	
0	0	0	0	0	509	
1	0	0	0	0	508	
2	0	0	0	0	508	
3	0	0	0	0	509	
4	0	0	0	0	510	
5	0	0	0	0	510	
6	0	0	0	0	508	
7	0	0	0	0	508	
8	0	0	0	0	508	
9	0	0	0	0	507	
10	0	0	0	0	507	
11	0	0	0	0	507	
12	0	0	0	0	507	
13	0	0	0	0	506	
14	0	0	0	0	506	
15	0	0	0	0	507	
0	0	0	0	0	507	
1	0	0	0	0	508	
2	0	0	0	0	508	
3	0	0	0	0	508	
4	0	0	0	0	511	
5	0	0	0	0	511	
6	0	0	0	0	512	
7	0	0	0	0	513	
8	0	0	0	0	513	
9	0	0	0	0	512	
10	0	0	0	0	510	
11	0	0	0	0	510	
12	0	0	0	0	509	
13	0	0	0	0	507	
14	0	0	0	0	505	
15	0	0	0	0	504	
0	0	0	0	0	504	
1	0	0	0	0	505	
2	0	0	0	0	505	
3	0	0	0	0	508	
4	0	0	0	0	512	
5	0	0	0	0	511	
6	0	0	0	0	512	
7	0	0	0	0	512	
8	0	0	0	0	512	
9	0	0	0	0	512	
10	0	0	0	0	511	
11	0	0	0	0	510	
12	0	0	0	0	508	
13	0	0	0	0	508	
14	0	0	0	0	508	
15	0	0	0	0	507	
0	0	0	0	0	507	
1	0	0	0	0	508	
2	0	0	0	0	508	
3	0	0	0	0	508	
4	0	0	0	0	509	
5	0	0	0	0	508	
6	0	0	0	0	508	
7	0	0	0	0	509	
8	0	0	0	0	510	
9	0	0	0	0	510	
10	0	0	0	0	511	
11	0	0	0	0	511	
12	0	0	0	0	512	
13	0	0	0	0	512	
14	0	0	0	0	511	
15	0	0	0	0	510	
0	0	0	0	0	509	
1	0	0	0	0	509	
2	0	0	0	0	511	
3	0	0	0	0	511	
4	0	0	0	0	509	
5	0	0	0	0	509	
6	0	0	0	0	510	
7	0	0	0	0	512	
8	0	0	0	0	513	
9	0	0	0	0	513	
10	0	0	0	0	513	
11	0	0	0	0	513	
12	0	0	0	0	515	
13	0	0	0	0	515	
14	0	0	0	0	516	
15	0	0	0	0	519	
0	0	0	0	0	519	
1	0	0	0	0	518	
2	0	0	0	0	518	
3	0	0	0	0	518	
4	0	0	0	0	519	
5	0	0	0	0	521	
6	0	0	0	0	523	
7	0	0	0	0	525	
8	0	0	0	0	523	
9	0	0	0	0	520	
10	0	0	0	0	520	
11	0	0	0	0	520	
12	0	0	0	0	519	
13	0	0	0	0	517	
14	0	0	0	0	514	
15	0	0	0	0	511	
0	0	0	0	0	509	
1	0	0	0	0	508	
2	0	0	0	0	505	
3	0	0	0	0	503	
4	0	0	0	0	502	
5	0	0	0	0	500	
6	0	0	0	0	501	
7	0	0	0	0	503	
8	0	0	0	0	504	
9	0	0	0	0	505	
10	0	0	0	0	508	
11	0	0	0	0	510	
12	0	0	0	0	509	
13	0	0	0	0	511	
14	0	0	0	0	513	
15	0	0	0	0	512	
0	0	0	0	0	514	
1	0	0	0	0	515	
2	0	0	0	0	516	
3	0	0	0	0	518	
4	0	0	0	0	517	
5	0	0	0	0	516	
6	0	0	0	0	517	
7	0	0	0	0	518	
8	0	0	0	0	519	
9	0	0	0	0	519	
10	0	0	0	0	519	
11	0	0	0	0	519	
12	0	0	0	0	517	
13	0	0	0	0	515	
14	0	0	0	0	514	
15	0	0	0	0	513	
0	0	0	0	0	511	
1	0	0	0	0	509	
2	0	0	0	0	506	
3	0	0	0	0	504	
4	0	0	0	0	501	
5	0	0	0	0	501	
6	0	0	0	0	499	
7	0	0	0	0	499	
8	0	0	0	0	500	
9	0	0	0	0	502	
10	0	0	0	0	502	
11	0	0	0	0	502	
12	0	0	0	0	504	
13	0	0	0	0	505	
14	0	0	0	0	505	
15	0	0	0	0	506	
0	0	0	0	0	505	
1	0	0	0	0	505	
2	0	0	0	0	507	
3	0	0	0	0	508	
4	0	0	0	0	508	
5	0	0	0	0	510	
6	0	0	0	0	512	
7	0	0	0	0	514	
8	0	0	0	0	515	
9	0	0	0	0	515	
10	0	0	0	0	513	
11	0	0	0	0	512	
12	0	0	0	0	511	
13	0	0	0	0	509	
14	0	0	0	0	507	
15	0	0	0	0	504	
0	0	0	0	0	502	
1	0	0	0	0	501	
2	0	0	0	0	500	
3	0	0	0	0	499	
4	0	0	0	0	497	
5	0	0	0	0	497	
6	0	0	0	0	497	
7	0	0	0	0	499	
8	0	0	0	0	498	
9	0	0	0	0	497	
10	0	0	0	0	499	
11	0	0	0	0	499	
12	0	0	0	0	501	
13	0	0	0	0	499	
14	0	0	0	0	494	
15	0	0	0	0	492	
0	0	0	0	0	492	
1	0	0	0	0	492	
2	0	0	0	0	491	
3	0	0	0	0	491	
4	0	0	0	0	491	
5	0	0	0	0	491	
6	0	0	0	0	493	
7	0	0	0	0	493	
8	0	0	0	0	493	
9	0	0	0	0	494	
10	0	0	0	0	496	
11	0	0	0	0	496	
12	0	0	0	0	497	
13	0	0	0	0	497	
14	0	0	0	0	497	
15	0	0	0	0	498	
0	0	0	0	0	498	
1	0	0	0	0	498	
2	0	0	0	0	499	
3	0	0	0	0	499	
4	0	0	0	0	497	
5	0	0	0	0	497	
6	0	0	0	0	498	
7	0	0	0	0	498	
8	0	0	0	0	497	
9	0	0	0	0	497	
10	0	0	0	0	498	
11	0	0	0	0	497	
12	0	0	0	0	497	
13	0	0	0	0	498	
14	0	0	0	0	499	
15	0	0	0	0	498	
0	0	0	0	0	499	
1	0	0	0	0	498	
2	0	0	0	0	496	
3	0	0	0	0	493	
4	0	0	0	0	489	
5	0	0	0	0	488	
6	0	0	0	0	487	
7	0	0	0	0	488	
8	0	0	0	0	489	
9	0	0	0	0	493	
10	0	0	0	0	498	
11	0	0	0	0	503	
12	0	0	0	0	509	
13	0	0	0	0	516	
14	0	0	0	0	521	
15	0	0	0	0	526	
0	0	0	0	0	532	
1	0	0	0	0	539	
2	0	0	0	0	544	
3	0	0	0	0	552	
4	0	0	0	0	561	
5	0	0	0	0	571	
6	0	0	0	0	582	
7	0	0	0	0	595	
8	0	0	0	0	611	
9	0	0	0	0	627	
10	0	0	0	0	644	
11	0	0	0	0	663	
12	0	0	0	0	681	
13	0	0	0	0	700	
14	0	0	0	0	719	
15	0	0	0	0	738	
0	0	0	0	0	759	
1	0	0	0	0	779	
2	0	0	0	0	798	
3	0	0	0	0	814	
4	0	0	0	0	829	
5	0	0	0	0	841	
6	0	0	0	0	844	
7	0	0	0	0	840	
8	0	0	0	0	834	
9	0	0	0	0	827	
10	0	0	0	0	815	
11	0	0	0	0	797	
12	0	0	0	0	777	
13	0	0	0	0	755	
14	0	0	0	0	724	
15	0	0	0	0	694	
0	0	0	0	0	660	
1	0	0	0	0	623	
2	0	0	0	0	583	
3	0	0	0	0	540	
4	0	0	0	0	498	
5	0	0	0	0	459	
6	0	0	0	0	427	
7	0	0	0	0	402	
8	0	0	0	0	386	
9	0	0	0	0	378	
10	0	0	0	0	377	
11	0	0	0	0	382	
12	0	0	0	0	388	
13	0	0	0	0	394	
14	0	0	0	0	401	
15	0	0	0	0	409	
0	0	0	0	0	416	
1	0	0	0	0	422	
2	0	0	0	0	425	
3	0	0	0	0	431	
4	0	0	0	0	435	
5	0	0	0	0	440	
6	0	0	0	0	444	
7	0	0	0	0	448	
8	0	0	0	0	450	
9	0	0	0	0	451	
10	0	0	0	0	452	
11	0	0	0	0	452	
12	0	0	0	0	454	
13	0	0	0	0	455	
14	0	0	0	0	455	
15	0	0	0	0	456	
0	0	0	0	0	458	
1	0	0	0	0	459	
2	0	0	0	0	460	
3	0	0	0	0	459	
4	0	0	0	0	460	
5	0	0	0	0	460	
6	0	0	0	0	460	
7	0	0	0	0	459	
8	0	0	0	0	458	
9	0	0	0	0	459	
10	0	0	0	0	459	
11	0	0	0	0	460	
12	0	0	0	0	461	
13	0	0	0	0	464	
14	0	0	0	0	469	
15	0	0	0	0	476	
0	0	0	0	0	481	
1	0	0	0	0	486	
2	0	0	0	0	490	
3	0	0	0	0	494	
4	0	0	0	0	498	
5	0	0	0	0	501	
6	0	0	0	0	504	
7	0	0	0	0	507	
8	0	0	0	0	509	
9	0	0	0	0	511	
10	0	0	0	0	510	
11	0	0	0	0	509	
12	0	0	0	0	507	
13	0	0	0	0	506	
14	0	0	0	0	504	
15	0	0	0	0	502	
0	0	0	0	0	501	
1	0	0	0	0	499	
2	0	0	0	0	498	
3	0	0	0	0	498	
4	0	0	0	0	496	
5	0	0	0	0	495	
6	0	0	0	0	492	
7	0	0	0	0	491	
8	0	0	0	0	489	
9	0	0	0	0	489	
10	0	0	0	0	489	
11	0	0	0	0	488	
12	0	0	0	0	489	
13	0	0	0	0	489	
14	0	0	0	0	490	
15	0	0	0	0	492	
0	0	0	0	0	491	
1	0	0	0	0	492	
2	0	0	0	0	491	
3	0	0	0	0	489	
4	0	0	0	0	490	
5	0	0	0	0	489	
6	0	0	0	0	489	
7	0	0	0	0	487	
8	0	0	0	0	485	
9	0	0	0	0	485	
10	0	0	0	0	485	
11	0	0	0	0	486	
12	0	0	0	0	487	
13	0	0	0	0	488	
14	0	0	0	0	488	
15	0	0	0	0	487	
0	0	0	0	0	487	
1	0	0	0	0	488	
2	0	0	0	0	488	
3	0	0	0	0	489	
4	0	0	0	0	490	
5	0	0	0	0	491	
6	0	0	0	0	491	
7	0	0	0	0	492	
8	0	0	0	0	491	
9	0	0	0	0	491	
10	0	0	0	0	492	
11	0	0	0	0	493	
12	0	0	0	0	492	
13	0	0	0	0	493	
14	0	0	0	0	494	
15	0	0	0	0	495	
0	0	0	0	0	495	
1	0	0	0	0	496	
2	0	0	0	0	496	
3	0	0	0	0	497	
4	0	0	0	0	498	
5	0	0	0	0	498	
6	0	0	0	0	498	
7	0	0	0	0	499	
8	0	0	0	0	498	
9	0	0	0	0	498	
10	0	0	0	0	497	
11	0	0	0	0	497	
12	0	0	0	0	497	
13	0	0	0	0	496	
14	0	0	0	0	497	
15	0	0	0	0	498	
0	0	0	0	0	500	
1	0	0	0	0	502	
2	0	0	0	0	503	
3	0	0	0	0	505	
4	0	0	0	0	506	
5	0	0	0	0	505	
6	0	0	0	0	503	
7	0	0	0	0	502	
8	0	0	0	0	501	
9	0	0	0	0	502	
10	0	0	0	0	502	
11	0	0	0	0	503	
12	0	0	0	0	504	
13	0	0	0	0	503	
14	0	0	0	0	504	
15	0	0	0	0	504	
0	0	0	0	0	505	
1	0	0	0	0	506	
2	0	0	0	0	507	
3	0	0	0	0	509	
4	0	0	0	0	509	
5	0	0	0	0	510	
6	0	0	0	0	511	
7	0	0	0	0	512	
8	0	0	0	0	513	
9	0	0	0	0	513	
10	0	0	0	0	513	
11	0	0	0	0	514	
12	0	0	0	0	515	
13	0	0	0	0	517	
14	0	0	0	0	518	
15	0	0	0	0	519	
0	0	0	0	0	519	
1	0	0	0	0	519	
2	0	0	0	0	521	
3	0	0	0	0	523	
4	0	0	0	0	523	
5	0	0	0	0	523	
6	0	0	0	0	522	
7	0	0	0	0	523	
8	0	0	0	0	524	
9	0	0	0	0	524	
10	0	0	0	0	525	
11	0	0	0	0	526	
12	0	0	0	0	526	
13	0	0	0	0	526	
14	0	0	0	0	526	
15	0	0	0	0	527	
0	0	0	0	0	530	
1	0	0	0	0	532	
2	0	0	0	0	533	
3	0	0	0	0	534	
4	0	0	0	0	535	
5	0	0	0	0	537	
6	0	0	0	0	539	
7	0	0	0	0	540	
8	0	0	0	0	540	
9	0	0	0	0	539	
10	0	0	0	0	540	
11	0	0	0	0	540	
12	0	0	0	0	540	
13	0	0	0	0	541	
14	0	0	0	0	542	
15	0	0	0	0	543	
0	0	0	0	0	546	
1	0	0	0	0	546	
2	0	0	0	0	548	
3	0	0	0	0	549	
4	0	0	0	0	550	
5	0	0	0	0	551	
6	0	0	0	0	553	
7	0	0	0	0	555	
8	0	0	0	0	556	
9	0	0	0	0	555	
10	0	0	0	0	556	
11	0	0	0	0	559	
12	0	0	0	0	560	
13	0	0	0	0	559	
14	0	0	0	0	559	
15	0	0	0	0	558	
0	0	0	0	0	558	
1	0	0	0	0	559	
2	0	0	0	0	560	
3	0	0	0	0	561	
4	0	0	0	0	563	
5	0	0	0	0	563	
6	0	0	0	0	563	
7	0	0	0	0	563	
8	0	0	0	0	563	
9	0	0	0	0	563	
10	0	0	0	0	562	
11	0	0	0	0	562	
12	0	0	0	0	563	
13	0	0	0	0	563	
14	0	0	0	0	563	
15	0	0	0	0	563	
0	0	0	0	0	562	
1	0	0	0	0	563	
2	0	0	0	0	565	
3	0	0	0	0	567	
4	0	0	0	0	569	
5	0	0	0	0	572	
6	0	0	0	0	572	
7	0	0	0	0	571	
8	0	0	0	0	571	
9	0	0	0	0	570	
10	0	0	0	0	569	
11	0	0	0	0	568	
12	0	0	0	0	567	
13	0	0	0	0	566	
14	0	0	0	0	564	
15	0	0	0	0	562	
0	0	0	0	0	560	
1	0	0	0	0	559	
2	0	0	0	0	557	
3	0	0	0	0	556	
4	0	0	0	0	553	
5	0	0	0	0	551	
6	0	0	0	0	548	
7	0	0	0	0	547	
8	0	0	0	0	545	
9	0	0	0	0	544	
10	0	0	0	0	542	
11	0	0	0	0	540	
12	0	0	0	0	537	
13	0	0	0	0	534	
14	0	0	0	0	531	
15	0	0	0	0	528	
0	0	0	0	0	525	
1	0	0	0	0	523	
2	0	0	0	0	520	
3	0	0	0	0	518	
4	0	0	0	0	515	
5	0	0	0	0	512	
6	0	0	0	0	511	
7	0	0	0	0	508	
8	0	0	0	0	506	
9	0	0	0	0	503	
10	0	0	0	0	500	
11	0	0	0	0	499	
12	0	0	0	0	496	
13	0	0	0	0	493	
14	0	0	0	0	491	
15	0	0	0	0	488	
0	0	0	0	0	485	
1	0	0	0	0	483	
2	0	0	0	0	479	
3	0	0	0	0	477	
4	0	0	0	0	475	
5	0	0	0	0	474	
6	0	0	0	0	472	
7	0	0	0	0	470	
8	0	0	0	0	468	
9	0	0	0	0	467	
10	0	0	0	0	465	
11	0	0	0	0	464	
12	0	0	0	0	462	
13	0	0	0	0	460	
14	0	0	0	0	459	
15	0	0	0	0	457	
0	0	0	0	0	455	
1	0	0	0	0	453	
2	0	0	0	0	451	
3	0	0	0	0	450	
4	0	0	0	0	449	
5	0	0	0	0	447	
6	0	0	0	0	446	
7	0	0	0	0	445	
8	0	0	0	0	444	
9	0	0	0	0	443	
10	0	0	0	0	444	
11	0	0	0	0	444	
12	0	0	0	0	444	
13	0	0	0	0	443	
14	0	0	0	0	442	
15	0	0	0	0	443	
0	0	0	0	0	443	
1	0	0	0	0	440	
2	0	0	0	0	438	
3	0	0	0	0	437	
4	0	0	0	0	436	
5	0	0	0	0	436	
6	0	0	0	0	438	
7	0	0	0	0	439	
8	0	0	0	0	439	
9	0	0	0	0	439	
10	0	0	0	0	438	
11	0	0	0	0	437	
12	0	0	0	0	437	
13	0	0	0	0	439	
14	0	0	0	0	438	
15	0	0	0	0	438	
0	0	0	0	0	439	
1	0	0	0	0	441	
2	0	0	0	0	441	
3	0	0	0	0	441	
4	0	0	0	0	441	
5	0	0	0	0	441	
6	0	0	0	0	440	
7	0	0	0	0	441	
8	0	0	0	0	441	
9	0	0	0	0	443	
10	0	0	0	0	444	
11	0	0	0	0	445	
12	0	0	0	0	447	
13	0	0	0	0	448	
14	0	0	0	0	447	
15	0	0	0	0	447	
0	0	0	0	0	447	
1	0	0	0	0	447	
2	0	0	0	0	447	
3	0	0	0	0	447	
4	0	0	0	0	448	
5	0	0	0	0	450	
6	0	0	0	0	451	
7	0	0	0	0	452	
8	0	0	0	0	454	
9	0	0	0	0	454	
10	0	0	0	0	455	
11	0	0	0	0	456	
12	0	0	0	0	456	
13	0	0	0	0	457	
14	0	0	0	0	458	
15	0	0	0	0	459	
0	0	0	0	0	459	
1	0	0	0	0	459	
2	0	0	0	0	459	
3	0	0	0	0	458	
4	0	0	0	0	457	
5	0	0	0	0	458	
6	0	0	0	0	459	
7	0	0	0	0	461	
8	0	0	0	0	462	
9	0	0	0	0	464	
10	0	0	0	0	466	
11	0	0	0	0	467	
12	0	0	0	0	469	
13	0	0	0	0	471	
14	0	0	0	0	472	
15	0	0	0	0	472	
0	0	0	0	0	472	
1	0	0	0	0	472	
2	0	0	0	0	472	
3	0	0	0	0	472	
4	0	0	0	0	473	
5	0	0	0	0	474	
6	0	0	0	0	475	
7	0	0	0	0	477	
8	0	0	0	0	478	
9	0	0	0	0	481	
10	0	0	0	0	481	
11	0	0	0	0	482	
12	0	0	0	0	482	
13	0	0	0	0	482	
14	0	0	0	0	481	
15	0	0	0	0	481	
0	0	0	0	0	483	
1	0	0	0	0	483	
2	0	0	0	0	484	
3	0	0	0	0	485	
4	0	0	0	0	485	
5	0	0	0	0	486	
6	0	0	0	0	488	
7	0	0	0	0	490	
8	0	0	0	0	490	
9	0	0	0	0	490	
10	0	0	0	0	490	
11	0	0	0	0	490	
12	0	0	0	0	491	
13	0	0	0	0	492	
14	0	0	0	0	493	
15	0	0	0	0	492	
0	0	0	0	0	492	
1	0	0	0	0	491	
2	0	0	0	0	492	
3	0	0	0	0	492	
4	0	0	0	0	493	
5	0	0	0	0	493	
6	0	0	0	0	494	
7	0	0	0	0	496	
8	0	0	0	0	496	
9	0	0	0	0	497	
10	0	0	0	0	497	
11	0	0	0	0	497	
12	0	0	0	0	499	
13	0	0	0	0	500	
14	0	0	0	0	501	
15	0	0	0	0	502	
0	0	0	0	0	502	
1	0	0	0	0	503	
2	0	0	0	0	504	
3	0	0	0	0	505	
4	0	0	0	0	506	
5	0	0	0	0	506	
6	0	0	0	0	506	
7	0	0	0	0	505	
8	0	0	0	0	504	
9	0	0	0	0	503	
10	0	0	0	0	502	
11	0	0	0	0	502	
12	0	0	0	0	503	
13	0	0	0	0	503	
14	0	0	0	0	505	
15	0	0	0	0	506	
0	0	0	0	0	507	
1	0	0	0	0	507	
2	0	0	0	0	508	
3	0	0	0	0	508	
4	0	0	0	0	507	
5	0	0	0	0	506	
6	0	0	0	0	505	
7	0	0	0	0	504	
8	0	0	0	0	505	
9	0	0	0	0	505	
10	0	0	0	0	505	
11	0	0	0	0	505	
12	0	0	0	0	506	
13	0	0	0	0	507	
14	0	0	0	0	508	
15	0	0	0	0	508	
0	0	0	0	0	508	
1	0	0	0	0	510	
2	0	0	0	0	511	
3	0	0	0	0	511	
4	0	0	0	0	511	
5	0	0	0	0	511	
6	0	0	0	0	511	
7	0	0	0	0	510	
8	0	0	0	0	510	
9	0	0	0	0	509	
10	0	0	0	0	507	
11	0	0	0	0	507	
12	0	0	0	0	506	
13	0	0	0	0	507	
14	0	0	0	0	507	
15	0	0	0	0	508	
0	0	0	0	0	508	
1	0	0	0	0	508	
2	0	0	0	0	507	
3	0	0	0	0	507	
4	0	0	0	0	507	
5	0	0	0	0	507	
6	0	0	0	0	507	
7	0	0	0	0	507	
8	0	0	0	0	508	
9	0	0	0	0	509	
10	0	0	0	0	510	
11	0	0	0	0	510	
12	0	0	0	0	511	
13	0	0	0	0	512	
14	0	0	0	0	511	
15	0	0	0	0	512	
0	0	0	0	0	512	
1	0	0	0	0	514	
2	0	0	0	0	515	
3	0	0	0	0	514	
4	0	0	0	0	514	
5	0	0	0	0	514	
6	0	0	0	0	514	
7	0	0	0	0	513	
8	0	0	0	0	512	
9	0	0	0	0	512	
10	0	0	0	0	512	
11	0	0	0	0	511	
12	0	0	0	0	511	
13	0	0	0	0	511	
14	0	0	0	0	512	
15	0	0	0	0	510	
0	0	0	0	0	510	
1	0	0	0	0	511	
2	0	0	0	0	510	
3	0	0	0	0	512	
4	0	0	0	0	513	
5	0	0	0	0	513	
6	0	0	0	0	513	
7	0	0	0	0	513	
8	0	0	0	0	513	
9	0	0	0	0	513	
10	0	0	0	0	511	
11	0	0	0	0	512	
12	0	0	0	0	512	
13	0	0	0	0	512	
14	0	0	0	0	512	
15	0	0	0	0	512	
0	0	0	0	0	512	
1	0	0	0	0	514	
2	0	0	0	0	515	
3	0	0	0	0	515	
4	0	0	0	0	514	
5	0	0	0	0	513	
6	0	0	0	0	512	
7	0	0	0	0	513	
8	0	0	0	0	513	
9	0	0	0	0	513	
10	0	0	0	0	512	
11	0	0	0	0	511	
12	0	0	0	0	511	
13	0	0	0	0	511	
14	0	0	0	0	511	
15	0	0	0	0	512	
0	0	0	0	0	512	
1	0	0	0	0	513	
2	0	0	0	0	512	
3	0	0	0	0	512	
4	0	0	0	0	512	
5	0	0	0	0	512	
6	0	0	0	0	512	
7	0	0	0	0	512	
8	0	0	0	0	511	
9	0	0	0	0	511	
10	0	0	0	0	511	
11	0	0	0	0	511	
12	0	0	0	0	511	
13	0	0	0	0	510	
14	0	0	0	0	510	
15	0	0	0	0	511	
0	0	0	0	0	513	
1	0	0	0	0	513	
2	0	0	0	0	515	
3	0	0	0	0	515	
4	0	0	0	0	514	
5	0	0	0	0	515	
6	0	0	0	0	515	
7	0	0	0	0	515	
8	0	0	0	0	516	
9	0	0	0	0	515	
10	0	0	0	0	513	
11	0	0	0	0	512	
12	0	0	0	0	512	
13	0	0	0	0	511	
14	0	0	0	0	511	
15	0	0	0	0	511	
0	0	0	0	0	512	
1	0	0	0	0	514	
2	0	0	0	0	516	
3	0	0	0	0	515	
4	0	0	0	0	515	
5	0	0	0	0	515	
6	0	0	0	0	513	
7	0	0	0	0	512	
8	0	0	0	0	512	
9	0	0	0	0	511	
10	0	0	0	0	510	
11	0	0	0	0	510	
12	0	0	0	0	510	
13	0	0	0	0	510	
14	0	0	0	0	511	
15	0	0	0	0	511	
0	0	0	0	0	510	
1	0	0	0	0	510	
2	0	0	0	0	509	
3	0	0	0	0	509	
4	0	0	0	0	509	
5	0	0	0	0	511	
6	0	0	0	0	515	
7	0	0	0	0	516	
8	0	0	0	0	516	
9	0	0	0	0	515	
10	0	0	0	0	514	
11	0	0	0	0	514	
12	0	0	0	0	513	
13	0	0	0	0	513	
14	0	0	0	0	512	
15	0	0	0	0	511	
0	0	0	0	0	512	
1	0	0	0	0	512	
2	0	0	0	0	513	
3	0	0	0	0	512	
4	0	0	0	0	512	
5	0	0	0	0	512	
6	0	0	0	0	510	
7	0	0	0	0	508	
8	0	0	0	0	507	
9	0	0	0	0	508	
10	0	0	0	0	507	
11	0	0	0	0	508	
12	0	0	0	0	508	
13	0	0	0	0	509	
14	0	0	0	0	511	
15	0	0	0	0	512	
0	0	0	0	0	513	
1	0	0	0	0	514	
2	0	0	0	0	514	
3	0	0	0	0	515	
4	0	0	0	0	517	
5	0	0	0	0	517	
6	0	0	0	0	517	
7	0	0	0	0	516	
8	0	0	0	0	516	
9	0	0	0	0	518	
10	0	0	0	0	519	
11	0	0	0	0	519	
12	0	0	0	0	519	
13	0	0	0	0	520	
14	0	0	0	0	522	
15	0	0	0	0	523	
0	0	0	0	0	524	
1	0	0	0	0	525	
2	0	0	0	0	527	
3	0	0	0	0	527	
4	0	0	0	0	529	
5	0	0	0	0	532	
6	0	0	0	0	534	
7	0	0	0	0	536	
8	0	0	0	0	535	
9	0	0	0	0	536	
10	0	0	0	0	535	
11	0	0	0	0	535	
12	0	0	0	0	533	
13	0	0	0	0	530	
14	0	0	0	0	527	
15	0	0	0	0	525	
0	0	0	0	0	523	
1	0	0	0	0	519	
2	0	0	0	0	516	
3	0	0	0	0	514	
4	0	0	0	0	512	
5	0	0	0	0	511	
6	0	0	0	0	511	
7	0	0	0	0	511	
8	0	0	0	0	513	
9	0	0	0	0	516	
10	0	0	0	0	519	
11	0	0	0	0	521	
12	0	0	0	0	523	
13	0	0	0	0	524	
14	0	0	0	0	524	
15	0	0	0	0	525	
0	0	0	0	0	525	
1	0	0	0	0	526	
2	0	0	0	0	525	
3	0	0	0	0	526	
4	0	0	0	0	527	
5	0	0	0	0	528	
6	0	0	0	0	529	
7	0	0	0	0	529	
8	0	0	0	0	529	
9	0	0	0	0	529	
10	0	0	0	0	530	
11	0	0	0	0	530	
12	0	0	0	0	527	
13	0	0	0	0	524	
14	0	0	0	0	521	
15	0	0	0	0	520	
0	0	0	0	0	517	
1	0	0	0	0	514	
2	0	0	0	0	513	
3	0	0	0	0	510	
4	0	0	0	0	507	
5	0	0	0	0	504	
6	0	0	0	0	502	
7	0	0	0	0	501	
8	0	0	0	0	500	
9	0	0	0	0	499	
10	0	0	0	0	499	
11	0	0	0	0	499	
12	0	0	0	0	500	
13	0	0	0	0	501	
14	0	0	0	0	503	
15	0	0	0	0	504	
0	0	0	0	0	504	
1	0	0	0	0	506	
2	0	0	0	0	505	
3	0	0	0	0	505	
4	0	0	0	0	505	
5	0	0	0	0	507	
6	0	0	0	0	508	
7	0	0	0	0	510	
8	0	0	0	0	512	
9	0	0	0	0	514	
10	0	0	0	0	514	
11	0	0	0	0	514	
12	0	0	0	0	513	
13	0	0	0	0	514	
14	0	0	0	0	514	
15	0	0	0	0	513	
0	0	0	0	0	511	
1	0	0	0	0	508	
2	0	0	0	0	506	
3	0	0	0	0	504	
4	0	0	0	0	503	
5	0	0	0	0	502	
6	0	0	0	0	500	
7	0	0	0	0	500	
8	0	0	0	0	501	
9	0	0	0	0	502	
10	0	0	0	0	502	
11	0	0	0	0	500	
12	0	0	0	0	500	
13	0	0	0	0	501	
14	0	0	0	0	501	
15	0	0	0	0	502	
0	0	0	0	0	502	
1	0	0	0	0	502	
2	0	0	0	0	503	
3	0	0	0	0	503	
4	0	0	0	0	504	
5	0	0	0	0	505	
6	0	0	0	0	505	
7	0	0	0	0	505	
8	0	0	0	0	506	
9	0	0	0	0	507	
10	0	0	0	0	508	
11	0	0	0	0	508	
12	0	0	0	0	509	
13	0	0	0	0	509	
14	0	0	0	0	510	
15	0	0	0	0	510	
0	0	0	0	0	509	
1	0	0	0	0	509	
2	0	0	0	0	509	
3	0	0	0	0	509	
4	0	0	0	0	508	
5	0	0	0	0	508	
6	0	0	0	0	509	
7	0	0	0	0	510	
8	0	0	0	0	510	
9	0	0	0	0	510	
10	0	0	0	0	510	
11	0	0	0	0	512	
12	0	0	0	0	512	
13	0	0	0	0	515	
14	0	0	0	0	515	
15	0	0	0	0	516	
0	0	0	0	0	515	
1	0	0	0	0	514	
2	0	0	0	0	513	
3	0	0	0	0	511	
4	0	0	0	0	511	
5	0	0	0	0	510	
6	0	0	0	0	508	
7	0	0	0	0	508	
8	0	0	0	0	510	
9	0	0	0	0	512	
10	0	0	0	0	515	
11	0	0	0	0	519	
12	0	0	0	0	524	
13	0	0	0	0	528	
14	0	0	0	0	533	
15	0	0	0	0	540	
0	0	0	0	0	547	
1	0	0	0	0	554	
2	0	0	0	0	560	
3	0	0	0	0	570	
4	0	0	0	0	579	
5	0	0	0	0	589	
6	0	0	0	0	602	
7	0	0	0	0	617	
8	0	0	0	0	635	
9	0	0	0	0	655	
10	0	0	0	0	674	
11	0	0	0	0	696	
12	0	0	0	0	717	
13	0	0	0	0	739	
14	0	0	0	0	760	
15	0	0	0	0	779	
0	0	0	0	0	802	
1	0	0	0	0	828	
2	0	0	0	0	855	
3	0	0	0	0	881	
4	0	0	0	0	901	
5	0	0	0	0	920	
6	0	0	0	0	935	
7	0	0	0	0	941	
8	0	0	0	0	942	
9	0	0	0	0	939	
10	0	0	0	0	932	
11	0	0	0	0	921	
12	0	0	0	0	902	
13	0	0	0	0	875	
14	0	0	0	0	840	
15	0	0	0	0	801	
0	0	0	0	0	756	
1	0	0	0	0	711	
2	0	0	0	0	664	
3	0	0	0	0	615	
4	0	0	0	0	568	
5	0	0	0	0	522	
6	0	0	0	0	478	
7	0	0	0	0	436	
8	0	0	0	0	404	
9	0	0	0	0	382	
10	0	0	0	0	369	
11	0	0	0	0	365	
12	0	0	0	0	368	
13	0	0	0	0	375	
14	0	0	0	0	384	
15	0	0	0	0	391	
0	0	0	0	0	398	
1	0	0	0	0	406	
2	0	0	0	0	411	
3	0	0	0	0	417	
4	0	0	0	0	422	
5	0	0	0	0	429	
6	0	0	0	0	435	
7	0	0	0	0	440	
8	0	0	0	0	444	
9	0	0	0	0	447	
10	0	0	0	0	449	
11	0	0	0	0	453	
12	0	0	0	0	456	
13	0	0	0	0	458	
14	0	0	0	0	459	
15	0	0	0	0	460	
0	0	0	0	0	460	
1	0	0	0	0	460	
2	0	0	0	0	459	
3	0	0	0	0	460	
4	0	0	0	0	459	
5	0	0	0	0	458	
6	0	0	0	0	456	
7	0	0	0	0	457	
8	0	0	0	0	456	
9	0	0	0	0	456	
10	0	0	0	0	456	
11	0	0	0	0	458	
12	0	0	0	0	460	
13	0	0	0	0	460	
14	0	0	0	0	460	
15	0	0	0	0	463	
0	0	0	0	0	464	
1	0	0	0	0	465	
2	0	0	0	0	466	
3	0	0	0	0	468	
4	0	0	0	0	470	
5	0	0	0	0	471	
6	0	0	0	0	472	
7	0	0	0	0	471	
8	0	0	0	0	472	
9	0	0	0	0	474	
10	0	0	0	0	474	
11	0	0	0	0	476	
12	0	0	0	0	478	
13	0	0	0	0	480	
14	0	0	0	0	480	
15	0	0	0	0	480	
0	0	0	0	0	480	
1	0	0	0	0	479	
2	0	0	0	0	479	
3	0	0	0	0	480	
4	0	0	0	0	482	
5	0	0	0	0	481	
6	0	0	0	0	481	
7	0	0	0	0	481	
8	0	0	0	0	481	
9	0	0	0	0	482	
10	0	0	0	0	483	
11	0	0	0	0	484	
12	0	0	0	0	485	
13	0	0	0	0	485	
14	0	0	0	0	486	
15	0	0	0	0	487	
0	0	0	0	0	487	
1	0	0	0	0	488	
2	0	0	0	0	489	
3	0	0	0	0	489	
4	0	0	0	0	491	
5	0	0	0	0	491	
6	0	0	0	0	491	
7	0	0	0	0	491	
8	0	0	0	0	491	
9	0	0	0	0	491	
10	0	0	0	0	490	
11	0	0	0	0	490	
12	0	0	0	0	490	
13	0	0	0	0	490	
14	0	0	0	0	491	
15	0	0	0	0	491	
0	0	0	0	0	492	
1	0	0	0	0	494	
2	0	0	0	0	495	
3	0	0	0	0	496	
4	0	0	0	0	496	
5	0	0	0	0	496	
6	0	0	0	0	496	
7	0	0	0	0	497	
8	0	0	0	0	499	
9	0	0	0	0	499	
10	0	0	0	0	500	
11	0	0	0	0	502	
12	0	0	0	0	502	
13	0	0	0	0	502	
14	0	0	0	0	503	
15	0	0	0	0	503	
0	0	0	0	0	504	
1	0	0	0	0	504	
2	0	0	0	0	505	
3	0	0	0	0	504	
4	0	0	0	0	505	
5	0	0	0	0	506	
6	0	0	0	0	505	
7	0	0	0	0	506	
8	0	0	0	0	507	
9	0	0	0	0	507	
10	0	0	0	0	507	
11	0	0	0	0	507	
12	0	0	0	0	510	
13	0	0	0	0	511	
14	0	0	0	0	511	
15	0	0	0	0	511	
0	0	0	0	0	512	
1	0	0	0	0	513	
2	0	0	0	0	514	
3	0	0	0	0	515	
4	0	0	0	0	517	
5	0	0	0	0	517	
6	0	0	0	0	516	
7	0	0	0	0	514	
8	0	0	0	0	515	
9	0	0	0	0	516	
10	0	0	0	0	516	
11	0	0	0	0	516	
12	0	0	0	0	517	
13	0	0	0	0	518	
14	0	0	0	0	518	
15	0	0	0	0	519	
0	0	0	0	0	520	
1	0	0	0	0	521	
2	0	0	0	0	524	
3	0	0	0	0	525	
4	0	0	0	0	526	
5	0	0	0	0	527	
6	0	0	0	0	527	
7	0	0	0	0	527	
8	0	0	0	0	527	
9	0	0	0	0	528	
10	0	0	0	0	527	
11	0	0	0	0	528	
12	0	0	0	0	527	
13	0	0	0	0	527	
14	0	0	0	0	527	
15	0	0	0	0	529	
0	0	0	0	0	530	
1	0	0	0	0	531	
2	0	0	0	0	533	
3	0	0	0	0	533	
4	0	0	0	0	534	
5	0	0	0	0	536	
6	0	0	0	0	536	
7	0	0	0	0	537	
8	0	0	0	0	537	
9	0	0	0	0	539	
10	0	0	0	0	540	
11	0	0	0	0	541	
12	0	0	0	0	542	
13	0	0	0	0	543	
14	0	0	0	0	544	
15	0	0	0	0	545	
0	0	0	0	0	546	
1	0	0	0	0	547	
2	0	0	0	0	547	
3	0	0	0	0	547	
4	0	0	0	0	546	
5	0	0	0	0	547	
6	0	0	0	0	548	
7	0	0	0	0	548	
8	0	0	0	0	551	
9	0	0	0	0	551	
10	0	0	0	0	553	
11	0	0	0	0	553	
12	0	0	0	0	554	
13	0	0	0	0	555	
14	0	0	0	0	556	
15	0	0	0	0	558	
0	0	0	0	0	559	
1	0	0	0	0	560	
2	0	0	0	0	560	
3	0	0	0	0	561	
4	0	0	0	0	563	
5	0	0	0	0	564	
6	0	0	0	0	563	
7	0	0	0	0	564	
8	0	0	0	0	566	
9	0	0	0	0	567	
10	0	0	0	0	567	
11	0	0	0	0	567	
12	0	0	0	0	568	
13	0	0	0	0	567	
14	0	0	0	0	567	
15	0	0	0	0	570	
0	0	0	0	0	571	
1	0	0	0	0	571	
2	0	0	0	0	572	
3	0	0	0	0	572	
4	0	0	0	0	572	
5	0	0	0	0	572	
6	0	0	0	0	572	
7	0	0	0	0	572	
8	0	0	0	0	573	
9	0	0	0	0	574	
10	0	0	0	0	574	
11	0	0	0	0	575	
12	0	0	0	0	575	
13	0	0	0	0	576	
14	0	0	0	0	577	
15	0	0	0	0	576	
0	0	0	0	0	576	
1	0	0	0	0	576	
2	0	0	0	0	577	
3	0	0	0	0	577	
4	0	0	0	0	576	
5	0	0	0	0	577	
6	0	0	0	0	577	
7	0	0	0	0	577	
8	0	0	0	0	577	
9	0	0	0	0	577	
10	0	0	0	0	577	
11	0	0	0	0	576	
12	0	0	0	0	576	
13	0	0	0	0	576	
14	0	0	0	0	575	
15	0	0	0	0	573	
0	0	0	0	0	571	
1	0	0	0	0	570	
2	0	0	0	0	568	
3	0	0	0	0	567	
4	0	0	0	0	565	
5	0	0	0	0	566	
6	0	0	0	0	564	
7	0	0	0	0	562	
8	0	0	0	0	560	
9	0	0	0	0	558	
10	0	0	0	0	556	
11	0	0	0	0	554	
12	0	0	0	0	550	
13	0	0	0	0	548	
14	0	0	0	0	545	
15	0	0	0	0	543	
0	0	0	0	0	540	
1	0	0	0	0	537	
2	0	0	0	0	535	
3	0	0	0	0	533	
4	0	0	0	0	529	
5	0	0	0	0	526	
6	0	0	0	0	524	
7	0	0	0	0	521	
8	0	0	0	0	519	
9	0	0	0	0	515	
10	0	0	0	0	512	
11	0	0	0	0	510	
12	0	0	0	0	506	
13	0	0	0	0	504	
14	0	0	0	0	500	
15	0	0	0	0	496	
0	0	0	0	0	493	
1	0	0	0	0	489	
2	0	0	0	0	487	
3	0	0	0	0	481	
4	0	0	0	0	478	
5	0	0	0	0	475	
6	0	0	0	0	472	
7	0	0	0	0	468	
8	0	0	0	0	465	
9	0	0	0	0	463	
10	0	0	0	0	462	
11	0	0	0	0	461	
12	0	0	0	0	459	
13	0	0	0	0	457	
14	0	0	0	0	453	
15	0	0	0	0	451	
0	0	0	0	0	447	
1	0	0	0	0	444	
2	0	0	0	0	443	
3	0	0	0	0	442	
4	0	0	0	0	441	
5	0	0	0	0	440	
6	0	0	0	0	440	
7	0	0	0	0	437	
8	0	0	0	0	436	
9	0	0	0	0	435	
10	0	0	0	0	433	
11	0	0	0	0	432	
12	0	0	0	0	430	
13	0	0	0	0	429	
14	0	0	0	0	428	
15	0	0	0	0	427	
0	0	0	0	0	427	
1	0	0	0	0	428	
2	0	0	0	0	427	
3	0	0	0	0	427	
4	0	0	0	0	425	
5	0	0	0	0	427	
6	0	0	0	0	428	
7	0	0	0	0	429	
8	0	0	0	0	429	
9	0	0	0	0	429	
10	0	0	0	0	430	
11	0	0	0	0	430	
12	0	0	0	0	429	
13	0	0	0	0	428	
14	0	0	0	0	426	
15	0	0	0	0	426	
0	0	0	0	0	427	
1	0	0	0	0	429	
2	0	0	0	0	431	
3	0	0	0	0	431	
4	0	0	0	0	432	
5	0	0	0	0	432	
6	0	0	0	0	433	
7	0	0	0	0	435	
8	0	0	0	0	436	
9	0	0	0	0	436	
10	0	0	0	0	437	
11	0	0	0	0	438	
12	0	0	0	0	438	
13	0	0	0	0	439	
14	0	0	0	0	440	
15	0	0	0	0	440	
0	0	0	0	0	440	
1	0	0	0	0	440	
2	0	0	0	0	440	
3	0	0	0	0	441	
4	0	0	0	0	440	
5	0	0	0	0	442	
6	0	0	0	0	443	
7	0	0	0	0	444	
8	0	0	0	0	445	
9	0	0	0	0	447	
10	0	0	0	0	448	
11	0	0	0	0	449	
12	0	0	0	0	450	
13	0	0	0	0	451	
14	0	0	0	0	451	
15	0	0	0	0	453	
0	0	0	0	0	453	
1	0	0	0	0	454	
2	0	0	0	0	454	
3	0	0	0	0	455	
4	0	0	0	0	455	
5	0	0	0	0	455	
6	0	0	0	0	456	
7	0	0	0	0	459	
8	0	0	0	0	459	
9	0	0	0	0	462	
10	0	0	0	0	465	
11	0	0	0	0	466	
12	0	0	0	0	469	
13	0	0	0	0	470	
14	0	0	0	0	469	
15	0	0	0	0	469	
0	0	0	0	0	467	
1	0	0	0	0	468	
2	0	0	0	0	468	
3	0	0	0	0	469	
4	0	0	0	0	468	
5	0	0	0	0	468	
6	0	0	0	0	470	
7	0	0	0	0	470	
8	0	0	0	0	471	
9	0	0	0	0	472	
10	0	0	0	0	472	
11	0	0	0	0	472	
12	0	0	0	0	472	
13	0	0	0	0	473	
14	0	0	0	0	473	
15	0	0	0	0	474	
0	0	0	0	0	475	
1	0	0	0	0	475	
2	0	0	0	0	477	
3	0	0	0	0	479	
4	0	0	0	0	480	
5	0	0	0	0	480	
6	0	0	0	0	480	
7	0	0	0	0	480	
8	0	0	0	0	481	
9	0	0	0	0	481	
10	0	0	0	0	482	
11	0	0	0	0	484	
12	0	0	0	0	485	
13	0	0	0	0	486	
14	0	0	0	0	487	
15	0	0	0	0	487	
0	0	0	0	0	487	
1	0	0	0	0	488	
2	0	0	0	0	489	
3	0	0	0	0	489	
4	0	0	0	0	490	
5	0	0	0	0	489	
6	0	0	0	0	489	
7	0	0	0	0	489	
8	0	0	0	0	489	
9	0	0	0	0	491	
10	0	0	0	0	492	
11	0	0	0	0	492	
12	0	0	0	0	492	
13	0	0	0	0	494	
14	0	0	0	0	496	
15	0	0	0	0	496	
0	0	0	0	0	496	
1	0	0	0	0	496	
2	0	0	0	0	496	
3	0	0	0	0	496	
4	0	0	0	0	495	
5	0	0	0	0	494	
6	0	0	0	0	494	
7	0	0	0	0	495	
8	0	0	0	0	497	
9	0	0	0	0	497	
10	0	0	0	0	498	
11	0	0	0	0	500	
12	0	0	0	0	500	
13	0	0	0	0	501	
14	0	0	0	0	501	
15	0	0	0	0	503	
0	0	0	0	0	504	
1	0	0	0	0	504	
2	0	0	0	0	505	
3	0	0	0	0	506	
4	0	0	0	0	506	
5	0	0	0	0	508	
6	0	0	0	0	508	
7	0	0	0	0	509	
8	0	0	0	0	511	
9	0	0	0	0	512	
10	0	0	0	0	513	
11	0	0	0	0	513	
12	0	0	0	0	512	
13	0	0	0	0	512	
14	0	0	0	0	513	
15	0	0	0	0	514	
0	0	0	0	0	513	
1	0	0	0	0	512	
2	0	0	0	0	511	
3	0	0	0	0	511	
4	0	0	0	0	510	
5	0	0	0	0	512	
6	0	0	0	0	513	
7	0	0	0	0	512	
8	0	0	0	0	513	
9	0	0	0	0	512	
10	0	0	0	0	511	
11	0	0	0	0	511	
12	0	0	0	0	513	
13	0	0	0	0	514	
14	0	0	0	0	514	
15	0	0	0	0	515	
0	0	0	0	0	515	
1	0	0	0	0	515	
2	0	0	0	0	516	
3	0	0	0	0	517	
4	0	0	0	0	517	
5	0	0	0	0	518	
6	0	0	0	0	516	
7	0	0	0	0	516	
8	0	0	0	0	517	
9	0	0	0	0	517	
10	0	0	0	0	516	
11	0	0	0	0	517	
12	0	0	0	0	516	
13	0	0	0	0	516	
14	0	0	0	0	515	
15	0	0	0	0	515	
0	0	0	0	0	514	
1	0	0	0	0	514	
2	0	0	0	0	515	
3	0	0	0	0	515	
4	0	0	0	0	515	
5	0	0	0	0	514	
6	0	0	0	0	515	
7	0	0	0	0	516	
8	0	0	0	0	514	
9	0	0	0	0	514	
10	0	0	0	0	514	
11	0	0	0	0	514	
12	0	0	0	0	514	
13	0	0	0	0	513	
14	0	0	0	0	512	
15	0	0	0	0	512	
0	0	0	0	0	513	
1	0	0	0	0	515	
2	0	0	0	0	516	
3	0	0	0	0	516	
4	0	0	0	0	515	
5	0	0	0	0	515	
6	0	0	0	0	514	
7	0	0	0	0	512	
8	0	0	0	0	512	
9	0	0	0	0	512	
10	0	0	0	0	512	
11	0	0	0	0	512	
12	0	0	0	0	511	
13	0	0	0	0	511	
14	0	0	0	0	511	
15	0	0	0	0	511	
0	0	0	0	0	513	
1	0	0	0	0	513	
2	0	0	0	0	514	
3	0	0	0	0	513	
4	0	0	0	0	514	
5	0	0	0	0	513	
6	0	0	0	0	515	
7	0	0	0	0	516	
8	0	0	0	0	515	
9	0	0	0	0	513	
10	0	0	0	0	512	
11	0	0	0	0	511	
12	0	0	0	0	511	
13	0	0	0	0	511	
14	0	0	0	0	513	
15	0	0	0	0	513	
0	0	0	0	0	512	
1	0	0	0	0	511	
2	0	0	0	0	512	
3	0	0	0	0	511	
4	0	0	0	0	510	
5	0	0	0	0	508	
6	0	0	0	0	508	
7	0	0	0	0	509	
8	0	0	0	0	508	
9	0	0	0	0	508	
10	0	0	0	0	508	
11	0	0	0	0	509	
12	0	0	0	0	508	
13	0	0	0	0	508	
14	0	0	0	0	509	
15	0	0	0	0	510	
0	0	0	0	0	510	
1	0	0	0	0	511	
2	0	0	0	0	513	
3	0	0	0	0	514	
4	0	0	0	0	512	
5	0	0	0	0	512	
6	0	0	0	0	512	
7	0	0	0	0	513	
8	0	0	0	0	513	
9	0	0	0	0	510	
10	0	0	0	0	511	
11	0	0	0	0	510	
12	0	0	0	0	509	
13	0	0	0	0	511	
14	0	0	0	0	512	
15	0	0	0	0	513	
0	0	0	0	0	513	
1	0	0	0	0	512	
2	0	0	0	0	512	
3	0	0	0	0	513	
4	0	0	0	0	514	
5	0	0	0	0	515	
6	0	0	0	0	514	
7	0	0	0	0	512	
8	0	0	0	0	511	
9	0	0	0	0	510	
10	0	0	0	0	508	
11	0	0	0	0	508	
12	0	0	0	0	507	
13	0	0	0	0	507	
14	0	0	0	0	509	
15	0	0	0	0	509	
0	0	0	0	0	508	
1	0	0	0	0	508	
2	0	0	0	0	508	
3	0	0	0	0	511	
4	0	0	0	0	511	
5	0	0	0	0	510	
6	0	0	0	0	509	
7	0	0	0	0	508	
8	0	0	0	0	507	
9	0	0	0	0	505	
10	0	0	0	0	505	
11	0	0	0	0	506	
12	0	0	0	0	505	
13	0	0	0	0	504	
14	0	0	0	0	502	
15	0	0	0	0	501	
0	0	0	0	0	502	
1	0	0	0	0	504	
2	0	0	0	0	504	
3	0	0	0	0	504	
4	0	0	0	0	505	
5	0	0	0	0	505	
6	0	0	0	0	507	
7	0	0	0	0	505	
8	0	0	0	0	505	
9	0	0	0	0	505	
10	0	0	0	0	506	
11	0	0	0	0	504	
12	0	0	0	0	505	
13	0	0	0	0	506	
14	0	0	0	0	504	
15	0	0	0	0	503	
0	0	0	0	0	503	
1	0	0	0	0	504	
2	0	0	0	0	504	
3	0	0	0	0	506	
4	0	0	0	0	508	
5	0	0	0	0	508	
6	0	0	0	0	507	
7	0	0	0	0	508	
8	0	0	0	0	510	
9	0	0	0	0	509	
10	0	0	0	0	508	
11	0	0	0	0	511	
12	0	0	0	0	512	
13	0	0	0	0	513	
14	0	0	0	0	515	
15	0	0	0	0	515	
0	0	0	0	0	513	
1	0	0	0	0	513	
2	0	0	0	0	513	
3	0	0	0	0	514	
4	0	0	0	0	513	
5	0	0	0	0	512	
6	0	0	0	0	512	
7	0	0	0	0	514	
8	0	0	0	0	516	
9	0	0	0	0	516	
10	0	0	0	0	514	
11	0	0	0	0	515	
12	0	0	0	0	515	
13	0	0	0	0	514	
14	0	0	0	0	512	
15	0	0	0	0	512	
0	0	0	0	0	510	
1	0	0	0	0	510	
2	0	0	0	0	511	
3	0	0	0	0	510	
4	0	0	0	0	509	
5	0	0	0	0	508	
6	0	0	0	0	509	
7	0	0	0	0	511	
8	0	0	0	0	511	
9	0	0	0	0	511	
10	0	0	0	0	511	
11	0	0	0	0	512	
12	0	0	0	0	511	
13	0	0	0	0	511	
14	0	0	0	0	511	
15	0	0	0	0	512	
0	0	0	0	0	511	
1	0	0	0	0	510	
2	0	0	0	0	511	
3	0	0	0	0	513	
4	0	0	0	0	515	
5	0	0	0	0	517	
6	0	0	0	0	520	
7	0	0	0	0	523	
8	0	0	0	0	525	
9	0	0	0	0	526	
10	0	0	0	0	527	
11	0	0	0	0	528	
12	0	0	0	0	525	
13	0	0	0	0	524	
14	0	0	0	0	523	
15	0	0	0	0	524	
0	0	0	0	0	526	
1	0	0	0	0	527	
2	0	0	0	0	528	
3	0	0	0	0	530	
4	0	0	0	0	532	
5	0	0	0	0	535	
6	0	0	0	0	536	
7	0	0	0	0	536	
8	0	0	0	0	532	
9	0	0	0	0	530	
10	0	0	0	0	527	
11	0	0	0	0	525	
12	0	0	0	0	521	
13	0	0	0	0	519	
14	0	0	0	0	519	
15	0	0	0	0	519	
0	0	0	0	0	517	
1	0	0	0	0	515	
2	0	0	0	0	513	
3	0	0	0	0	513	
4	0	0	0	0	512	
5	0	0	0	0	516	
6	0	0	0	0	519	
7	0	0	0	0	522	
8	0	0	0	0	523	
9	0	0	0	0	527	
10	0	0	0	0	529	
11	0	0	0	0	527	
12	0	0	0	0	526	
13	0	0	0	0	524	
14	0	0	0	0	524	
15	0	0	0	0	524	
0	0	0	0	0	525	
1	0	0	0	0	525	
2	0	0	0	0	525	
3	0	0	0	0	525	
4	0	0	0	0	527	
5	0	0	0	0	528	
6	0	0	0	0	528	
7	0	0	0	0	529	
8	0	0	0	0	530	
9	0	0	0	0	529	
10	0	0	0	0	530	
11	0	0	0	0	532	
12	0	0	0	0	531	
13	0	0	0	0	528	
14	0	0	0	0	525	
15	0	0	0	0	526	
0	0	0	0	0	524	
1	0	0	0	0	524	
2	0	0	0	0	523	
3	0	0	0	0	520	
4	0	0	0	0	519	
5	0	0	0	0	517	
6	0	0	0	0	515	
7	0	0	0	0	512	
8	0	0	0	0	510	
9	0	0	0	0	510	
10	0	0	0	0	511	
11	0	0	0	0	513	
12	0	0	0	0	515	
13	0	0	0	0	515	
14	0	0	0	0	516	
15	0	0	0	0	515	
0	0	0	0	0	514	
1	0	0	0	0	515	
2	0	0	0	0	517	
3	0	0	0	0	517	
4	0	0	0	0	516	
5	0	0	0	0	516	
6	0	0	0	0	514	
7	0	0	0	0	513	
8	0	0	0	0	515	
9	0	0	0	0	516	
10	0	0	0	0	516	
11	0	0	0	0	517	
12	0	0	0	0	516	
13	0	0	0	0	518	
14	0	0	0	0	516	
15	0	0	0	0	513	
0	0	0	0	0	511	
1	0	0	0	0	507	
2	0	0	0	0	504	
3	0	0	0	0	504	
4	0	0	0	0	500	
5	0	0	0	0	502	
6	0	0	0	0	501	
7	0	0	0	0	505	
8	0	0	0	0	508	
9	0	0	0	0	509	
10	0	0	0	0	508	
11	0	0	0	0	508	
12	0	0	0	0	507	
13	0	0	0	0	506	
14	0	0	0	0	507	
15	0	0	0	0	508	
0	0	0	0	0	508	
1	0	0	0	0	508	
2	0	0	0	0	507	
3	0	0	0	0	506	
4	0	0	0	0	507	
5	0	0	0	0	507	
6	0	0	0	0	508	
7	0	0	0	0	508	
8	0	0	0	0	507	
9	0	0	0	0	508	
10	0	0	0	0	511	
11	0	0	0	0	514	
12	0	0	0	0	516	
13	0	0	0	0	518	
14	0	0	0	0	518	
15	0	0	0	0	516	
0	0	0	0	0	515	
1	0	0	0	0	514	
2	0	0	0	0	514	
3	0	0	0	0	513	
4	0	0	0	0	512	
5	0	0	0	0	513	
6	0	0	0	0	516	
7	0	0	0	0	517	
8	0	0	0	0	518	
9	0	0	0	0	519	
10	0	0	0	0	522	
11	0	0	0	0	523	
12	0	0	0	0	524	
13	0	0	0	0	523	
14	0	0	0	0	522	
15	0	0	0	0	523	
0	0	0	0	0	524	
1	0	0	0	0	524	
2	0	0	0	0	522	
3	0	0	0	0	519	
4	0	0	0	0	516	
5	0	0	0	0	513	
6	0	0	0	0	512	
7	0	0	0	0	511	
8	0	0	0	0	511	
9	0	0	0	0	513	
10	0	0	0	0	516	
11	0	0	0	0	522	
12	0	0	0	0	528	
13	0	0	0	0	536	
14	0	0	0	0	543	
15	0	0	0	0	550	
0	0	0	0	0	560	
1	0	0	0	0	569	
2	0	0	0	0	575	
3	0	0	0	0	580	
4	0	0	0	0	588	
5	0	0	0	0	600	
6	0	0	0	0	614	
7	0	0	0	0	630	
8	0	0	0	0	645	
9	0	0	0	0	662	
10	0	0	0	0	679	
11	0	0	0	0	699	
12	0	0	0	0	719	
13	0	0	0	0	739	
14	0	0	0	0	759	
15	0	0	0	0	782	
0	0	0	0	0	806	
1	0	0	0	0	830	
2	0	0	0	0	855	
3	0	0	0	0	877	
4	0	0	0	0	894	
5	0	0	0	0	905	
6	0	0	0	0	905	
7	0	0	0	0	902	
8	0	0	0	0	895	
9	0	0	0	0	885	
10	0	0	0	0	870	
11	0	0	0	0	851	
12	0	0	0	0	827	
13	0	0	0	0	798	
14	0	0	0	0	764	
15	0	0	0	0	727	
0	0	0	0	0	688	
1	0	0	0	0	649	
2	0	0	0	0	607	
3	0	0	0	0	565	
4	0	0	0	0	521	
5	0	0	0	0	480	
6	0	0	0	0	440	
7	0	0	0	0	408	
8	0	0	0	0	385	
9	0	0	0	0	372	
10	0	0	0	0	365	
11	0	0	0	0	366	
12	0	0	0	0	373	
13	0	0	0	0	384	
14	0	0	0	0	392	
15	0	0	0	0	396	
0	0	0	0	0	401	
1	0	0	0	0	408	
2	0	0	0	0	415	
3	0	0	0	0	422	
4	0	0	0	0	428	
5	0	0	0	0	435	
6	0	0	0	0	441	
7	0	0	0	0	446	
8	0	0	0	0	450	
9	0	0	0	0	452	
10	0	0	0	0	455	
11	0	0	0	0	455	
12	0	0	0	0	457	
13	0	0	0	0	459	
14	0	0	0	0	460	
15	0	0	0	0	461	
0	0	0	0	0	459	
1	0	0	0	0	461	
2	0	0	0	0	462	
3	0	0	0	0	465	
4	0	0	0	0	465	
5	0	0	0	0	463	
6	0	0	0	0	462	
7	0	0	0	0	462	
8	0	0	0	0	460	
9	0	0	0	0	459	
10	0	0	0	0	458	
11	0	0	0	0	460	
12	0	0	0	0	462	
13	0	0	0	0	461	
14	0	0	0	0	462	
15	0	0	0	0	460	
0	0	0	0	0	458	
1	0	0	0	0	458	
2	0	0	0	0	459	
3	0	0	0	0	462	
4	0	0	0	0	463	
5	0	0	0	0	468	
6	0	0	0	0	469	
7	0	0	0	0	469	
8	0	0	0	0	469	
9	0	0	0	0	472	
10	0	0	0	0	474	
11	0	0	0	0	478	
12	0	0	0	0	480	
13	0	0	0	0	481	
14	0	0	0	0	485	
15	0	0	0	0	487	
0	0	0	0	0	486	
1	0	0	0	0	487	
2	0	0	0	0	489	
3	0	0	0	0	490	
4	0	0	0	0	492	
5	0	0	0	0	493	
6	0	0	0	0	492	
7	0	0	0	0	494	
8	0	0	0	0	495	
9	0	0	0	0	496	
10	0	0	0	0	497	
11	0	0	0	0	496	
12	0	0	0	0	496	
13	0	0	0	0	495	
14	0	0	0	0	497	
15	0	0	0	0	499	
0	0	0	0	0	500	
1	0	0	0	0	500	
2	0	0	0	0	502	
3	0	0	0	0	504	
4	0	0	0	0	505	
5	0	0	0	0	504	
6	0	0	0	0	504	
7	0	0	0	0	502	
8	0	0	0	0	501	
9	0	0	0	0	502	
10	0	0	0	0	499	
11	0	0	0	0	499	
12	0	0	0	0	498	
13	0	0	0	0	497	
14	0	0	0	0	499	
15	0	0	0	0	504	
0	0	0	0	0	506	
1	0	0	0	0	508	
2	0	0	0	0	509	
3	0	0	0	0	509	
4	0	0	0	0	509	
5	0	0	0	0	510	
6	0	0	0	0	513	
7	0	0	0	0	515	
8	0	0	0	0	514	
9	0	0	0	0	515	
10	0	0	0	0	518	
11	0	0	0	0	516	
12	0	0	0	0	516	
13	0	0	0	0	517	
14	0	0	0	0	516	
15	0	0	0	0	516	
0	0	0	0	0	519	
1	0	0	0	0	521	
2	0	0	0	0	519	
3	0	0	0	0	522	
4	0	0	0	0	523	
5	0	0	0	0	523	
6	0	0	0	0	524	
7	0	0	0	0	525	
8	0	0	0	0	527	
9	0	0	0	0	528	
10	0	0	0	0	528	
11	0	0	0	0	529	
12	0	0	0	0	529	
13	0	0	0	0	529	
14	0	0	0	0	531	
15	0	0	0	0	529	
0	0	0	0	0	529	
1	0	0	0	0	531	
2	0	0	0	0	529	
3	0	0	0	0	528	
4	0	0	0	0	528	
5	0	0	0	0	528	
6	0	0	0	0	528	
7	0	0	0	0	528	
8	0	0	0	0	530	
9	0	0	0	0	531	
10	0	0	0	0	527	
11	0	0	0	0	523	
12	0	0	0	0	522	
13	0	0	0	0	521	
14	0	0	0	0	522	
15	0	0	0	0	524	
0	0	0	0	0	526	
1	0	0	0	0	527	
2	0	0	0	0	528	
3	0	0	0	0	531	
4	0	0	0	0	534	
5	0	0	0	0	533	
6	0	0	0	0	532	
7	0	0	0	0	535	
8	0	0	0	0	535	
9	0	0	0	0	534	
10	0	0	0	0	535	
11	0	0	0	0	537	
12	0	0	0	0	540	
13	0	0	0	0	541	
14	0	0	0	0	539	
15	0	0	0	0	537	
0	0	0	0	0	536	
1	0	0	0	0	537	
2	0	0	0	0	537	
3	0	0	0	0	537	
4	0	0	0	0	538	
5	0	0	0	0	539	
6	0	0	0	0	542	
7	0	0	0	0	547	
8	0	0	0	0	548	
9	0	0	0	0	547	
10	0	0	0	0	545	
11	0	0	0	0	547	
12	0	0	0	0	547	
13	0	0	0	0	550	
14	0	0	0	0	550	
15	0	0	0	0	551	
0	0	0	0	0	552	
1	0	0	0	0	552	
2	0	0	0	0	552	
3	0	0	0	0	553	
4	0	0	0	0	553	
5	0	0	0	0	553	
6	0	0	0	0	555	
7	0	0	0	0	558	
8	0	0	0	0	556	
9	0	0	0	0	555	
10	0	0	0	0	555	
11	0	0	0	0	556	
12	0	0	0	0	556	
13	0	0	0	0	555	
